,unixtime,emg0,emg1,emg2,emg0_ampl,emg1_ampl,emg2_ampl,emg0_med,emg1_med
0,1555416695.094791,513.0,522.0,550.0,126.0,204.0,232.0,510.25,513.4
1,1555416695.1578457,469.0,468.0,586.0,119.0,204.0,232.0,511.65,506.35
2,1555416695.2267568,479.0,505.0,595.0,114.0,204.0,232.0,513.2,502.7
3,1555416695.292374,493.0,518.0,550.0,106.0,204.0,232.0,515.2,500.45
4,1555416695.3582795,497.0,528.0,479.0,98.0,204.0,232.0,517.0,498.45
5,1555416695.422965,481.0,569.0,408.0,98.0,204.0,228.0,517.0,499.15
6,1555416695.4973133,497.0,521.0,383.0,98.0,204.0,253.0,517.15,496.6
7,1555416695.5663278,509.0,509.0,399.0,98.0,204.0,253.0,516.85,499.95
8,1555416695.6321049,510.0,525.0,443.0,98.0,197.0,253.0,516.15,504.7
9,1555416695.7044096,510.0,527.0,506.0,98.0,197.0,253.0,515.2,508.75
10,1555416695.7822864,517.0,561.0,584.0,98.0,197.0,212.0,513.0,511.4
11,1555416695.8479257,505.0,512.0,625.0,98.0,197.0,242.0,510.35,512.05
12,1555416695.9123487,502.0,515.0,612.0,98.0,197.0,242.0,507.1,511.05
13,1555416695.9815662,496.0,498.0,581.0,89.0,132.0,242.0,503.55,504.25
14,1555416696.0640633,489.0,489.0,565.0,64.0,132.0,242.0,500.1,506.25
15,1555416696.1316955,497.0,535.0,527.0,57.0,132.0,242.0,498.3,510.1
16,1555416696.2044506,533.0,534.0,473.0,64.0,132.0,242.0,498.65,511.85
17,1555416696.2728112,560.0,485.0,429.0,91.0,114.0,242.0,501.8,514.25
18,1555416696.3446386,533.0,486.0,429.0,91.0,101.0,242.0,503.8,515.8
19,1555416696.4089677,841.0,496.0,461.0,372.0,101.0,242.0,521.55,515.15
20,1555416696.483042,809.0,639.0,508.0,372.0,171.0,242.0,536.35,521.0
21,1555416696.5497642,619.0,615.0,557.0,362.0,154.0,242.0,543.85,528.35
22,1555416696.617226,601.0,594.0,564.0,360.0,154.0,242.0,549.95,532.8
23,1555416696.6931603,400.0,531.0,568.0,441.0,154.0,242.0,545.3,533.45
24,1555416696.7638884,387.0,510.0,572.0,454.0,154.0,242.0,539.8,532.55
25,1555416696.837451,373.0,527.0,553.0,468.0,154.0,242.0,534.4,530.45
26,1555416696.906476,631.0,622.0,516.0,468.0,154.0,226.0,541.1,535.5
27,1555416696.9841166,576.0,483.0,454.0,468.0,156.0,196.0,544.45,534.2
28,1555416697.0637348,641.0,490.0,451.0,468.0,156.0,196.0,551.0,532.45
29,1555416697.144596,550.0,572.0,537.0,468.0,156.0,196.0,553.0,534.7
30,1555416697.2141747,521.0,438.0,518.0,468.0,201.0,196.0,553.2,528.55
31,1555416697.284082,540.0,420.0,457.0,468.0,219.0,183.0,554.95,523.95
32,1555416697.3634799,522.0,438.0,458.0,468.0,219.0,152.0,555.95,520.1
33,1555416697.4374082,532.0,539.0,500.0,468.0,219.0,143.0,557.75,522.15
34,1555416697.5096824,498.0,557.0,527.0,468.0,219.0,143.0,558.2,525.55
35,1555416697.582783,485.0,548.0,540.0,468.0,219.0,143.0,557.6,526.2
36,1555416697.6712177,441.0,484.0,539.0,468.0,219.0,143.0,553.0,523.7
37,1555416697.7467997,477.0,457.0,507.0,468.0,219.0,143.0,548.85,522.3
38,1555416697.8150394,518.0,444.0,514.0,468.0,219.0,121.0,548.1,520.2
39,1555416697.884656,502.0,460.0,502.0,436.0,219.0,121.0,531.15,518.4
40,1555416697.958343,467.0,464.0,523.0,268.0,202.0,121.0,514.05,509.65
41,1555416698.0395164,482.0,485.0,553.0,268.0,202.0,121.0,507.2,503.15
42,1555416698.1125896,456.0,373.0,542.0,268.0,249.0,121.0,499.95,492.1
43,1555416698.1851969,462.0,401.0,536.0,268.0,249.0,121.0,503.05,485.6
44,1555416698.2676508,504.0,440.0,525.0,268.0,249.0,102.0,508.9,482.1
45,1555416698.3409107,525.0,492.0,474.0,200.0,249.0,102.0,516.5,480.35
46,1555416698.426872,578.0,485.0,469.0,200.0,199.0,102.0,513.85,473.5
47,1555416698.5012405,615.0,554.0,496.0,200.0,199.0,102.0,515.8,477.05
48,1555416698.5793836,545.0,605.0,543.0,174.0,232.0,96.0,511.0,482.8
49,1555416698.6615157,466.0,494.0,543.0,174.0,232.0,96.0,506.8,478.9
50,1555416698.7306905,566.0,519.0,521.0,174.0,232.0,96.0,509.05,482.95
51,1555416698.8227792,513.0,511.0,515.0,174.0,232.0,95.0,507.7,487.5
52,1555416698.892998,440.0,355.0,503.0,175.0,250.0,84.0,503.6,483.35
53,1555416698.9703488,401.0,311.0,505.0,214.0,294.0,84.0,497.05,471.95
54,1555416699.0601473,463.0,433.0,495.0,214.0,294.0,84.0,495.3,465.75
55,1555416699.1390042,451.0,461.0,467.0,214.0,294.0,86.0,493.6,461.4
56,1555416699.217665,439.0,456.0,462.0,214.0,294.0,91.0,493.5,460.0
57,1555416699.2970116,385.0,485.0,415.0,230.0,294.0,138.0,488.9,461.4
58,1555416699.3712878,367.0,508.0,473.0,248.0,294.0,138.0,481.35,464.6
59,1555416699.44846,369.0,548.0,499.0,248.0,294.0,138.0,474.7,469.0
60,1555416699.5233498,391.0,507.0,543.0,248.0,294.0,138.0,470.9,471.15
61,1555416699.6135364,257.0,517.0,549.0,358.0,294.0,134.0,459.65,472.75
62,1555416699.7087765,652.0,654.0,532.0,395.0,343.0,134.0,469.45,486.8
63,1555416699.7789724,689.0,621.0,507.0,432.0,343.0,134.0,480.8,497.8
64,1555416699.8506262,648.0,585.0,496.0,432.0,343.0,134.0,488.0,505.05
65,1555416699.9405508,534.0,502.0,481.0,432.0,343.0,134.0,488.45,505.55
66,1555416700.0240595,486.0,530.0,522.0,432.0,343.0,134.0,483.85,507.8
67,1555416700.0941684,481.0,598.0,541.0,432.0,343.0,134.0,477.15,510.0
68,1555416700.172413,469.0,610.0,540.0,432.0,343.0,134.0,473.35,510.25
69,1555416700.2476342,464.0,639.0,533.0,432.0,343.0,134.0,473.25,517.5
70,1555416700.3200934,490.0,604.0,483.0,432.0,343.0,134.0,469.45,521.75
71,1555416700.3987775,505.0,559.0,461.0,432.0,343.0,134.0,469.05,524.15
72,1555416700.4747581,529.0,592.0,475.0,432.0,343.0,134.0,473.5,536.0
73,1555416700.5603995,524.0,558.0,483.0,432.0,221.0,134.0,479.65,548.35
74,1555416700.6435862,535.0,532.0,506.0,432.0,198.0,134.0,483.25,553.3
75,1555416700.7378032,546.0,490.0,494.0,432.0,198.0,134.0,488.0,554.75
76,1555416700.8100162,547.0,507.0,493.0,432.0,169.0,134.0,493.4,557.3
77,1555416700.8860292,555.0,520.0,478.0,432.0,164.0,88.0,501.9,559.05
78,1555416700.9632783,547.0,506.0,514.0,432.0,164.0,88.0,510.9,558.95
79,1555416701.0390284,547.0,506.0,514.0,432.0,164.0,88.0,519.8,556.85
80,1555416701.110051,509.0,496.0,519.0,432.0,164.0,88.0,525.7,556.3
81,1555416701.1984408,517.0,588.0,505.0,225.0,164.0,80.0,538.7,559.85
82,1555416701.2769198,499.0,494.0,479.0,225.0,149.0,80.0,531.05,551.85
83,1555416701.35832,504.0,526.0,513.0,184.0,149.0,80.0,521.8,547.1
84,1555416701.445235,507.0,520.0,553.0,91.0,149.0,92.0,514.75,543.85
85,1555416701.533055,499.0,499.0,545.0,91.0,149.0,92.0,513.0,543.7
86,1555416701.6231668,502.0,439.0,526.0,91.0,200.0,92.0,513.8,539.15
87,1555416701.692605,512.0,488.0,547.0,91.0,200.0,92.0,515.35,533.65
88,1555416701.7809913,509.0,496.0,519.0,91.0,200.0,92.0,517.35,527.95
89,1555416701.882189,499.0,494.0,479.0,65.0,165.0,92.0,519.1,520.7
90,1555416701.9632168,504.0,526.0,513.0,56.0,153.0,92.0,519.8,516.8
91,1555416702.036722,499.0,499.0,545.0,56.0,153.0,78.0,519.5,513.8
92,1555416702.1110497,499.0,499.0,545.0,56.0,149.0,75.0,518.0,509.15
93,1555416702.1887648,502.0,439.0,526.0,56.0,149.0,75.0,516.9,503.2
94,1555416702.2663677,509.0,496.0,519.0,56.0,149.0,75.0,515.6,501.4
95,1555416702.3522108,517.0,588.0,505.0,56.0,149.0,75.0,514.15,506.3
96,1555416702.4327538,499.0,494.0,479.0,56.0,149.0,75.0,511.75,505.65
97,1555416702.5109403,507.0,520.0,553.0,48.0,149.0,74.0,509.35,505.65
98,1555416702.5806615,499.0,499.0,545.0,48.0,149.0,74.0,506.95,505.3
99,1555416702.6695936,531.0,570.0,517.0,32.0,149.0,74.0,506.15,508.5
100,1555416702.7512197,508.0,527.0,500.0,32.0,149.0,74.0,506.1,510.05
101,1555416702.8268979,509.0,527.0,521.0,32.0,149.0,74.0,505.7,507.0
102,1555416702.8984237,512.0,561.0,540.0,32.0,149.0,74.0,506.35,510.35
103,1555416702.9780593,492.0,551.0,532.0,39.0,149.0,74.0,505.75,511.6
104,1555416703.0551493,504.0,616.0,510.0,39.0,177.0,74.0,505.6,516.4
105,1555416703.12962,519.0,589.0,512.0,39.0,177.0,74.0,506.6,520.9
106,1555416703.202392,511.0,487.0,536.0,39.0,177.0,74.0,507.05,523.3
107,1555416703.2835445,514.0,491.0,512.0,39.0,177.0,74.0,507.15,523.45
108,1555416703.3651564,513.0,536.0,518.0,39.0,177.0,74.0,507.35,525.45
109,1555416703.4432273,534.0,509.0,481.0,42.0,177.0,74.0,509.1,526.2
110,1555416703.527875,516.0,453.0,486.0,42.0,177.0,74.0,509.7,522.55
111,1555416703.6033695,508.0,476.0,504.0,42.0,177.0,74.0,510.15,521.4
112,1555416703.6844397,513.0,548.0,474.0,42.0,177.0,79.0,510.85,523.85
113,1555416703.7655108,505.0,520.0,463.0,42.0,163.0,90.0,511.0,527.9
114,1555416703.8456278,515.0,574.0,478.0,42.0,163.0,90.0,511.3,531.8
115,1555416703.9160984,518.0,565.0,547.0,42.0,163.0,90.0,511.35,530.65
116,1555416704.009268,510.0,458.0,527.0,42.0,163.0,90.0,511.9,528.85
117,1555416704.0981045,513.0,494.0,507.0,42.0,163.0,84.0,512.2,527.55
118,1555416704.1804564,513.0,513.0,528.0,42.0,163.0,84.0,512.9,528.25
119,1555416704.260111,518.0,511.0,518.0,42.0,163.0,84.0,512.25,525.3
120,1555416704.3311253,527.0,450.0,501.0,42.0,166.0,84.0,513.2,521.45
121,1555416704.4092002,511.0,523.0,498.0,42.0,166.0,84.0,513.3,521.25
122,1555416704.4826918,504.0,483.0,499.0,42.0,166.0,84.0,512.9,517.35
123,1555416704.5793788,513.0,456.0,477.0,30.0,166.0,84.0,513.95,512.6
124,1555416704.6580796,507.0,500.0,480.0,30.0,139.0,84.0,514.1,506.8
125,1555416704.7388813,496.0,469.0,475.0,38.0,124.0,84.0,512.95,500.8
126,1555416704.8262966,504.0,507.0,511.0,38.0,124.0,84.0,512.6,501.8
127,1555416704.9108665,503.0,531.0,514.0,38.0,124.0,84.0,512.05,503.8
128,1555416704.9942417,501.0,494.0,510.0,38.0,124.0,84.0,511.45,501.7
129,1555416705.0682216,505.0,487.0,500.0,31.0,124.0,84.0,510.0,500.6
130,1555416705.1510415,508.0,488.0,497.0,31.0,124.0,84.0,509.6,502.35
131,1555416705.2338977,509.0,515.0,482.0,31.0,124.0,84.0,509.65,504.3
132,1555416705.3135846,500.0,514.0,492.0,31.0,124.0,84.0,509.0,502.6
133,1555416705.3854988,541.0,607.0,506.0,45.0,157.0,72.0,510.8,506.95
134,1555416705.479271,514.0,500.0,517.0,45.0,157.0,72.0,510.75,503.25
135,1555416705.5557241,506.0,507.0,500.0,45.0,157.0,53.0,510.15,500.35
136,1555416705.6326509,504.0,575.0,518.0,45.0,157.0,53.0,509.85,506.2
137,1555416705.7006745,507.0,552.0,523.0,45.0,157.0,53.0,509.55,509.1
138,1555416705.770114,512.0,545.0,515.0,45.0,157.0,48.0,509.5,510.7
139,1555416705.8410122,506.0,465.0,511.0,45.0,157.0,48.0,508.9,508.4
140,1555416705.9278243,503.0,475.0,506.0,45.0,151.0,48.0,507.7,509.65
141,1555416706.0192244,502.0,496.0,503.0,45.0,151.0,48.0,507.25,508.3
142,1555416706.1012776,517.0,587.0,535.0,45.0,151.0,60.0,507.9,513.5
143,1555416706.194178,490.0,550.0,511.0,51.0,142.0,60.0,506.75,518.2
144,1555416706.2830381,508.0,498.0,497.0,51.0,142.0,60.0,506.8,518.1
145,1555416706.3522606,507.0,540.0,498.0,51.0,142.0,53.0,507.35,521.65
146,1555416706.4362068,518.0,557.0,516.0,51.0,142.0,53.0,508.05,524.15
147,1555416706.5161183,517.0,638.0,507.0,51.0,173.0,53.0,508.75,529.5
148,1555416706.5948644,503.0,583.0,505.0,51.0,173.0,53.0,508.85,533.95
149,1555416706.679611,506.0,573.0,511.0,51.0,173.0,53.0,508.9,538.25
150,1555416706.7807925,507.0,537.0,521.0,51.0,173.0,53.0,508.85,540.7
151,1555416706.8546944,502.0,435.0,499.0,51.0,203.0,43.0,508.5,536.7
152,1555416706.9291925,518.0,501.0,514.0,51.0,203.0,38.0,509.4,536.05
153,1555416707.002774,499.0,509.0,503.0,28.0,203.0,38.0,507.3,531.15
154,1555416707.072198,503.0,483.0,516.0,28.0,203.0,38.0,506.75,530.3
155,1555416707.167417,507.0,525.0,525.0,28.0,203.0,38.0,506.8,531.2
156,1555416707.249948,532.0,481.0,535.0,42.0,203.0,38.0,508.2,526.5
157,1555416707.3451595,496.0,543.0,504.0,42.0,203.0,38.0,507.65,526.05
158,1555416707.4247189,512.0,553.0,505.0,42.0,203.0,38.0,507.65,526.45
159,1555416707.5068223,514.0,487.0,512.0,42.0,203.0,38.0,508.05,527.55
160,1555416707.5980244,504.0,419.0,515.0,42.0,219.0,38.0,508.1,524.75
161,1555416707.6955805,508.0,460.0,506.0,42.0,219.0,38.0,508.4,522.95
162,1555416707.7729168,501.0,501.0,511.0,42.0,219.0,38.0,507.6,518.65
163,1555416707.8705688,505.0,536.0,532.0,36.0,219.0,38.0,508.35,517.95
164,1555416707.9437373,517.0,501.0,524.0,36.0,219.0,37.0,508.8,518.1
165,1555416708.025881,497.0,444.0,499.0,36.0,219.0,36.0,508.3,513.3
166,1555416708.096959,505.0,495.0,509.0,36.0,219.0,36.0,507.65,510.2
167,1555416708.1674514,514.0,558.0,503.0,36.0,164.0,36.0,507.5,506.2
168,1555416708.2378035,506.0,530.0,493.0,36.0,154.0,42.0,507.65,503.55
169,1555416708.3086085,506.0,451.0,500.0,36.0,139.0,42.0,507.65,497.45
170,1555416708.3771896,505.0,464.0,498.0,36.0,139.0,42.0,507.55,493.8
171,1555416708.449027,501.0,482.0,534.0,36.0,139.0,42.0,507.5,496.15
172,1555416708.5248888,499.0,458.0,534.0,36.0,139.0,42.0,506.55,494.0
173,1555416708.5984948,498.0,455.0,520.0,36.0,139.0,42.0,506.5,491.3
174,1555416708.6842515,516.0,564.0,594.0,36.0,145.0,101.0,507.15,495.35
175,1555416708.7733033,506.0,543.0,550.0,36.0,145.0,101.0,507.1,496.25
176,1555416708.8543708,517.0,572.0,491.0,21.0,153.0,103.0,506.35,500.8
177,1555416708.938198,508.0,651.0,490.0,20.0,232.0,104.0,506.95,506.2
178,1555416709.0124073,499.0,677.0,530.0,20.0,258.0,104.0,506.3,512.4
179,1555416709.084648,490.0,603.0,503.0,27.0,258.0,104.0,505.1,518.2
180,1555416709.1568706,512.0,580.0,470.0,27.0,233.0,124.0,505.5,526.25
181,1555416709.2289011,515.0,382.0,465.0,27.0,295.0,129.0,505.85,522.35
182,1555416709.3068185,521.0,407.0,515.0,31.0,295.0,129.0,506.85,517.65
183,1555416709.3936355,531.0,524.0,513.0,41.0,295.0,129.0,508.15,517.05
184,1555416709.4700701,503.0,458.0,513.0,41.0,295.0,129.0,507.45,514.9
185,1555416709.5685227,490.0,525.0,522.0,41.0,295.0,129.0,507.1,518.95
186,1555416709.6451964,515.0,632.0,490.0,41.0,295.0,129.0,507.6,525.8
187,1555416709.7247097,499.0,662.0,504.0,41.0,295.0,129.0,506.85,531.0
188,1555416709.7957733,472.0,737.0,548.0,59.0,355.0,129.0,505.15,541.35
189,1555416709.869561,504.0,715.0,560.0,59.0,355.0,129.0,505.05,554.55
190,1555416709.952804,495.0,606.0,643.0,59.0,355.0,178.0,504.55,561.65
191,1555416710.0317361,503.0,771.0,511.0,59.0,389.0,178.0,504.65,576.1
192,1555416710.1198463,493.0,566.0,525.0,59.0,389.0,178.0,504.35,581.5
193,1555416710.2016237,525.0,536.0,560.0,59.0,389.0,178.0,505.7,585.55
194,1555416710.2775333,508.0,459.0,592.0,59.0,389.0,178.0,505.3,580.3
195,1555416710.3490348,509.0,0.0,442.0,59.0,771.0,201.0,505.45,553.15
196,1555416710.4384954,510.0,45.0,441.0,59.0,771.0,202.0,505.1,526.8
197,1555416710.5096788,499.0,302.0,409.0,59.0,771.0,234.0,504.65,509.35
198,1555416710.5859702,518.0,495.0,594.0,59.0,771.0,234.0,505.6,500.25
199,1555416710.6740785,524.0,484.0,469.0,59.0,771.0,234.0,507.3,494.3
200,1555416710.772685,475.0,380.0,514.0,59.0,771.0,234.0,505.45,484.3
201,1555416710.8512125,492.0,439.0,907.0,59.0,771.0,498.0,504.3,487.15
202,1555416710.923897,509.0,498.0,554.0,59.0,771.0,498.0,503.7,491.7
203,1555416711.008629,520.0,448.0,312.0,53.0,771.0,595.0,503.15,487.9
204,1555416711.0830574,554.0,441.0,507.0,82.0,771.0,595.0,505.7,487.05
205,1555416711.1690698,600.0,549.0,320.0,128.0,771.0,595.0,511.2,488.25
206,1555416711.2629032,568.0,572.0,387.0,128.0,771.0,595.0,513.85,485.25
207,1555416711.3442645,509.0,862.0,540.0,128.0,862.0,595.0,514.35,495.25
208,1555416711.4179623,490.0,916.0,459.0,125.0,916.0,595.0,515.25,504.2
209,1555416711.4911578,492.0,719.0,458.0,125.0,916.0,595.0,514.65,504.4
210,1555416711.566334,455.0,515.0,473.0,145.0,916.0,595.0,512.65,499.85
211,1555416711.650758,478.0,534.0,495.0,145.0,916.0,595.0,511.4,488.0
212,1555416711.730861,472.0,532.0,518.0,145.0,916.0,595.0,510.35,486.3
213,1555416711.826489,487.0,396.0,526.0,145.0,916.0,595.0,508.45,479.3
214,1555416711.9000497,491.0,620.0,518.0,145.0,916.0,595.0,507.6,487.35
215,1555416711.999794,431.0,561.0,510.0,169.0,871.0,595.0,503.7,515.4
216,1555416712.081134,429.0,547.0,504.0,171.0,614.0,595.0,499.65,540.5
217,1555416712.1746314,468.0,472.0,481.0,171.0,536.0,595.0,498.1,549.0
218,1555416712.2727532,496.0,781.0,515.0,171.0,536.0,595.0,497.0,563.3
219,1555416712.364725,509.0,391.0,518.0,171.0,536.0,595.0,496.25,558.65
220,1555416712.4493506,529.0,475.0,527.0,171.0,525.0,595.0,498.95,563.4
221,1555416712.533349,566.0,682.0,506.0,171.0,525.0,242.0,502.65,575.55
222,1555416712.6188443,520.0,483.0,481.0,171.0,525.0,228.0,503.2,574.8
223,1555416712.702305,498.0,565.0,517.0,171.0,525.0,220.0,502.1,580.65
224,1555416712.7787323,523.0,518.0,477.0,171.0,525.0,220.0,500.55,584.5
225,1555416712.8480632,505.0,498.0,503.0,139.0,525.0,153.0,495.8,581.95
226,1555416712.9168696,488.0,527.0,515.0,137.0,525.0,82.0,491.8,579.7
227,1555416712.9960911,504.0,688.0,511.0,137.0,525.0,69.0,491.55,571.0
228,1555416713.0777416,497.0,668.0,540.0,137.0,390.0,82.0,491.9,558.6
229,1555416713.1771412,511.0,663.0,503.0,137.0,390.0,67.0,492.85,555.8
230,1555416713.2585945,521.0,795.0,491.0,137.0,404.0,63.0,496.15,569.8
231,1555416713.34004,522.0,715.0,513.0,137.0,404.0,63.0,498.35,578.85
232,1555416713.4199967,534.0,548.0,489.0,137.0,404.0,63.0,501.45,579.65
233,1555416713.5088336,530.0,450.0,511.0,137.0,404.0,63.0,503.6,582.35
234,1555416713.5862093,512.0,499.0,515.0,137.0,404.0,63.0,504.65,576.3
235,1555416713.6804175,456.0,1.0,513.0,137.0,794.0,63.0,505.9,548.3
236,1555416713.769083,443.0,181.0,519.0,123.0,794.0,63.0,506.6,530.0
237,1555416713.844715,465.0,480.0,519.0,123.0,794.0,63.0,506.45,530.4
238,1555416713.9199684,483.0,582.0,500.0,123.0,794.0,63.0,505.8,520.45
239,1555416714.00344,511.0,674.0,488.0,123.0,794.0,63.0,505.9,534.6
240,1555416714.0977993,532.0,553.0,510.0,123.0,794.0,63.0,506.05,538.5
241,1555416714.188648,506.0,688.0,512.0,91.0,794.0,63.0,503.05,538.8
242,1555416714.2796094,510.0,422.0,509.0,91.0,794.0,63.0,502.55,535.75
243,1555416714.3652937,521.0,164.0,519.0,91.0,794.0,63.0,503.7,515.7
244,1555416714.4379869,556.0,94.0,509.0,113.0,794.0,52.0,505.35,494.5
245,1555416714.5101364,579.0,276.0,532.0,136.0,794.0,52.0,509.05,483.4
246,1555416714.5828302,586.0,143.0,482.0,143.0,794.0,58.0,513.95,464.2
247,1555416714.6579127,604.0,6.0,472.0,161.0,794.0,68.0,518.95,430.1
248,1555416714.7398252,659.0,826.0,506.0,216.0,825.0,60.0,527.05,438.0
249,1555416714.8175068,613.0,850.0,501.0,216.0,849.0,60.0,532.15,447.35
250,1555416714.8928492,540.0,663.0,504.0,216.0,849.0,60.0,533.1,440.75
251,1555416714.964261,483.0,739.0,525.0,216.0,849.0,60.0,531.15,441.95
252,1555416715.0434377,424.0,788.0,518.0,235.0,849.0,60.0,525.65,453.95
253,1555416715.1339183,427.0,650.0,504.0,235.0,849.0,60.0,520.5,463.95
254,1555416715.2211018,462.0,590.0,516.0,235.0,849.0,60.0,518.0,468.5
255,1555416715.2938051,460.0,592.0,495.0,235.0,844.0,60.0,518.2,498.05
256,1555416715.3804216,461.0,535.0,523.0,235.0,844.0,60.0,519.1,515.75
257,1555416715.4787762,470.0,498.0,514.0,235.0,844.0,60.0,519.35,516.65
258,1555416715.572218,501.0,461.0,515.0,235.0,844.0,60.0,520.25,510.6
259,1555416715.6557114,512.0,416.0,536.0,235.0,844.0,64.0,520.3,497.7
260,1555416715.7302344,503.0,365.0,544.0,235.0,844.0,72.0,518.85,488.3
261,1555416715.7995503,501.0,399.0,557.0,235.0,844.0,85.0,518.6,473.85
262,1555416715.872052,532.0,702.0,530.0,235.0,844.0,85.0,519.7,487.85
263,1555416715.9525187,505.0,508.0,519.0,235.0,844.0,85.0,518.9,505.05
264,1555416716.023704,517.0,579.0,515.0,235.0,844.0,85.0,516.95,529.3
265,1555416716.1023638,513.0,538.0,505.0,235.0,844.0,85.0,513.65,542.4
266,1555416716.1845329,532.0,535.0,500.0,235.0,844.0,85.0,510.95,562.0
267,1555416716.2791507,556.0,724.0,529.0,235.0,485.0,62.0,508.55,597.9
268,1555416716.362476,554.0,698.0,582.0,189.0,485.0,87.0,503.3,591.5
269,1555416716.434789,518.0,607.0,535.0,132.0,423.0,87.0,498.55,579.35
270,1555416716.5140307,513.0,506.0,518.0,132.0,423.0,87.0,497.2,571.5
271,1555416716.5928633,505.0,585.0,531.0,132.0,423.0,87.0,498.3,563.8
272,1555416716.6854906,501.0,475.0,525.0,129.0,359.0,87.0,502.15,548.15
273,1555416716.768875,514.0,485.0,533.0,96.0,359.0,87.0,506.5,539.9
274,1555416716.867316,527.0,611.0,446.0,96.0,359.0,136.0,509.75,540.95
275,1555416716.9459991,505.0,494.0,452.0,95.0,359.0,136.0,512.0,536.05
276,1555416717.0284576,514.0,451.0,496.0,86.0,359.0,136.0,514.65,531.85
277,1555416717.100248,525.0,455.0,509.0,55.0,359.0,136.0,517.4,529.7
278,1555416717.1846888,523.0,479.0,517.0,55.0,359.0,136.0,518.5,530.6
279,1555416717.2781112,519.0,501.0,533.0,55.0,359.0,136.0,518.85,534.85
280,1555416717.3622308,506.0,484.0,506.0,55.0,325.0,136.0,519.0,540.8
281,1555416717.4426868,495.0,468.0,488.0,61.0,273.0,136.0,518.7,544.25
282,1555416717.533256,497.0,481.0,470.0,61.0,273.0,136.0,516.95,533.2
283,1555416717.6123643,504.0,489.0,486.0,61.0,273.0,136.0,516.9,532.25
284,1555416717.6833177,504.0,490.0,492.0,61.0,273.0,136.0,516.25,527.8
285,1555416717.7639,555.0,642.0,491.0,61.0,273.0,136.0,518.35,533.0
286,1555416717.83462,506.0,490.0,506.0,61.0,273.0,136.0,517.05,530.75
287,1555416717.9086106,508.0,529.0,567.0,60.0,247.0,136.0,514.65,521.0
288,1555416717.9850247,505.0,508.0,534.0,60.0,191.0,121.0,512.2,511.5
289,1555416718.063755,528.0,620.0,504.0,60.0,191.0,121.0,512.7,512.15
290,1555416718.1349525,503.0,514.0,465.0,60.0,191.0,121.0,512.2,512.55
291,1555416718.2579768,516.0,489.0,537.0,60.0,191.0,121.0,512.75,507.75
292,1555416718.3304777,515.0,498.0,540.0,60.0,191.0,121.0,513.45,508.9
293,1555416718.4035246,499.0,533.0,504.0,60.0,191.0,121.0,512.7,511.3
294,1555416718.4784818,501.0,529.0,492.0,60.0,191.0,115.0,511.4,507.2
295,1555416718.5686886,501.0,465.0,502.0,60.0,191.0,102.0,511.2,505.75
296,1555416718.644992,497.0,489.0,474.0,60.0,187.0,102.0,510.35,507.65
297,1555416718.7267315,514.0,484.0,527.0,60.0,177.0,102.0,509.8,509.1
298,1555416718.814717,521.0,608.0,561.0,60.0,177.0,102.0,509.7,515.55
299,1555416718.8930938,499.0,496.0,532.0,60.0,177.0,102.0,508.7,515.3
300,1555416718.9794717,510.0,501.0,539.0,60.0,177.0,102.0,508.9,516.15
301,1555416719.067398,500.0,587.0,442.0,58.0,177.0,125.0,509.15,522.1
302,1555416719.1458704,495.0,494.0,471.0,60.0,177.0,125.0,509.05,522.75
303,1555416719.21671,501.0,548.0,518.0,60.0,177.0,125.0,508.9,525.7
304,1555416719.2943068,504.0,514.0,508.0,60.0,177.0,125.0,508.9,526.9
305,1555416719.3715057,505.0,515.0,486.0,33.0,155.0,125.0,506.4,520.55
306,1555416719.4527495,528.0,658.0,505.0,33.0,193.0,125.0,507.5,528.95
307,1555416719.5448046,506.0,548.0,516.0,33.0,193.0,119.0,507.4,529.9
308,1555416719.6286666,513.0,467.0,492.0,33.0,193.0,119.0,507.8,527.85
309,1555416719.7136502,509.0,453.0,493.0,33.0,205.0,119.0,506.85,519.5
310,1555416719.8028095,532.0,576.0,526.0,37.0,205.0,119.0,508.3,522.6
311,1555416719.8730242,521.0,474.0,546.0,37.0,205.0,119.0,508.55,521.85
312,1555416719.942817,501.0,445.0,520.0,37.0,213.0,119.0,507.85,519.2
313,1555416720.0181088,512.0,454.0,495.0,37.0,213.0,119.0,508.5,515.25
314,1555416720.096457,509.0,504.0,504.0,37.0,213.0,119.0,508.9,514.0
315,1555416720.1852481,514.0,467.0,509.0,37.0,213.0,119.0,509.55,514.1
316,1555416720.2738452,503.0,467.0,477.0,37.0,213.0,119.0,509.85,513.0
317,1555416720.355095,502.0,509.0,482.0,37.0,213.0,119.0,509.25,514.25
318,1555416720.4283905,509.0,498.0,514.0,37.0,213.0,104.0,508.65,508.75
319,1555416720.505434,504.0,486.0,499.0,37.0,213.0,104.0,508.9,508.25
320,1555416720.5769105,501.0,480.0,526.0,37.0,213.0,104.0,508.45,507.2
321,1555416720.6550992,503.0,535.0,512.0,37.0,213.0,75.0,508.6,504.6
322,1555416720.7272737,494.0,493.0,521.0,38.0,213.0,69.0,508.55,504.55
323,1555416720.8225806,511.0,517.0,548.0,38.0,213.0,71.0,509.05,503.0
324,1555416720.9113488,493.0,599.0,524.0,39.0,213.0,71.0,508.5,507.25
325,1555416721.0122888,525.0,513.0,521.0,39.0,213.0,71.0,509.5,507.15
326,1555416721.08951,519.0,521.0,497.0,39.0,154.0,71.0,509.05,500.3
327,1555416721.1622925,520.0,487.0,510.0,39.0,154.0,71.0,509.75,497.25
328,1555416721.2364666,508.0,534.0,514.0,39.0,154.0,71.0,509.5,500.6
329,1555416721.3202856,521.0,480.0,507.0,39.0,154.0,71.0,510.1,501.95
330,1555416721.409044,518.0,541.0,500.0,32.0,154.0,71.0,509.4,500.2
331,1555416721.4833446,505.0,436.0,504.0,32.0,163.0,71.0,508.6,498.3
332,1555416721.5602148,521.0,519.0,538.0,32.0,163.0,71.0,509.6,502.0
333,1555416721.6333735,496.0,442.0,541.0,32.0,163.0,71.0,508.8,501.4
334,1555416721.719567,511.0,501.0,509.0,32.0,163.0,71.0,508.9,501.25
335,1555416721.7983513,489.0,431.0,493.0,36.0,168.0,71.0,507.65,499.45
336,1555416721.8795567,512.0,512.0,505.0,36.0,168.0,66.0,508.1,501.7
337,1555416721.964914,506.0,477.0,488.0,36.0,168.0,60.0,508.3,500.1
338,1555416722.0419035,510.0,531.0,485.0,36.0,168.0,63.0,508.35,501.75
339,1555416722.1147761,507.0,538.0,496.0,36.0,168.0,63.0,508.5,504.35
340,1555416722.1856186,504.0,462.0,507.0,36.0,168.0,63.0,508.65,503.45
341,1555416722.2583706,511.0,563.0,513.0,36.0,168.0,63.0,509.05,504.85
342,1555416722.3425817,517.0,471.0,491.0,36.0,168.0,63.0,510.2,503.75
343,1555416722.4272046,518.0,610.0,483.0,36.0,179.0,58.0,510.55,508.4
344,1555416722.513295,483.0,564.0,478.0,42.0,179.0,63.0,510.05,506.65
345,1555416722.5907373,503.0,567.0,490.0,38.0,179.0,63.0,508.95,509.35
346,1555416722.679721,543.0,553.0,513.0,60.0,179.0,63.0,510.15,510.95
347,1555416722.7601964,505.0,460.0,487.0,60.0,179.0,63.0,509.4,509.6
348,1555416722.842599,513.0,531.0,512.0,60.0,179.0,63.0,509.65,509.45
349,1555416722.9257982,510.0,426.0,492.0,60.0,184.0,63.0,509.1,506.75
350,1555416723.011913,525.0,514.0,491.0,60.0,184.0,63.0,509.45,505.4
351,1555416723.0946443,495.0,434.0,487.0,60.0,184.0,63.0,508.95,505.3
352,1555416723.177463,508.0,524.0,494.0,60.0,184.0,63.0,508.3,505.55
353,1555416723.2476916,514.0,591.0,483.0,60.0,184.0,35.0,509.2,513.0
354,1555416723.3190556,513.0,653.0,450.0,60.0,227.0,63.0,509.3,520.6
355,1555416723.4097667,511.0,523.0,446.0,60.0,227.0,67.0,510.4,525.2
356,1555416723.4898283,515.0,530.0,428.0,60.0,227.0,85.0,510.55,526.1
357,1555416723.568752,541.0,555.0,422.0,60.0,227.0,91.0,512.3,530.0
358,1555416723.6398628,519.0,575.0,420.0,60.0,227.0,93.0,512.75,532.2
359,1555416723.7097988,515.0,470.0,410.0,60.0,227.0,103.0,513.15,528.8
360,1555416723.7795339,533.0,519.0,467.0,60.0,227.0,103.0,514.6,531.65
361,1555416723.8905118,497.0,485.0,500.0,60.0,227.0,103.0,513.9,527.75
362,1555416723.9737551,508.0,543.0,504.0,60.0,227.0,103.0,513.45,531.35
363,1555416724.0540888,511.0,479.0,512.0,60.0,227.0,103.0,513.1,524.8
364,1555416724.1263475,500.0,531.0,564.0,48.0,227.0,154.0,513.95,523.15
365,1555416724.2067,509.0,559.0,577.0,48.0,227.0,167.0,514.25,522.75
366,1555416724.2780516,526.0,533.0,555.0,46.0,227.0,167.0,513.4,521.75
367,1555416724.3487532,505.0,496.0,574.0,46.0,227.0,167.0,513.4,523.55
368,1555416724.4224615,487.0,464.0,588.0,54.0,227.0,178.0,512.1,520.2
369,1555416724.4954088,496.0,457.0,569.0,54.0,219.0,178.0,511.4,521.75
370,1555416724.5768573,513.0,488.0,568.0,54.0,219.0,178.0,510.8,520.45
371,1555416724.6679614,510.0,483.0,558.0,54.0,196.0,178.0,511.55,522.9
372,1555416724.745918,506.0,576.0,550.0,54.0,196.0,178.0,511.45,525.5
373,1555416724.8220105,499.0,468.0,524.0,54.0,196.0,178.0,510.7,519.35
374,1555416724.8928487,511.0,517.0,509.0,54.0,119.0,178.0,510.6,512.55
375,1555416724.9854987,507.0,453.0,465.0,54.0,123.0,178.0,510.4,509.05
376,1555416725.074326,513.0,497.0,495.0,54.0,123.0,178.0,510.3,507.4
377,1555416725.1442347,520.0,490.0,476.0,46.0,123.0,178.0,509.25,504.15
378,1555416725.2148986,492.0,455.0,481.0,46.0,123.0,178.0,507.9,498.15
379,1555416725.2989342,513.0,503.0,500.0,46.0,123.0,123.0,507.8,499.8
380,1555416725.3863919,522.0,554.0,518.0,39.0,123.0,123.0,507.25,501.55
381,1555416725.4767003,496.0,485.0,516.0,39.0,123.0,123.0,507.2,501.55
382,1555416725.576539,512.0,535.0,509.0,39.0,123.0,123.0,507.4,501.15
383,1555416725.6478803,497.0,478.0,587.0,39.0,123.0,123.0,506.7,501.1
384,1555416725.720434,503.0,461.0,476.0,39.0,123.0,123.0,506.85,497.6
385,1555416725.7947164,540.0,561.0,493.0,53.0,123.0,123.0,508.4,497.7
386,1555416725.868204,527.0,550.0,567.0,53.0,123.0,123.0,508.45,498.55
387,1555416725.9554694,513.0,556.0,570.0,53.0,123.0,123.0,508.85,501.55
388,1555416726.0371654,497.0,402.0,671.0,48.0,174.0,206.0,509.35,498.45
389,1555416726.1307957,497.0,402.0,671.0,48.0,174.0,206.0,509.4,495.7
390,1555416726.2111776,530.0,499.0,565.0,48.0,174.0,206.0,510.25,496.25
391,1555416726.2993195,497.0,478.0,587.0,48.0,174.0,206.0,509.6,496.0
392,1555416726.3771508,503.0,461.0,476.0,48.0,159.0,206.0,509.45,490.25
393,1555416726.46678,527.0,550.0,567.0,48.0,159.0,206.0,510.85,494.35
394,1555416726.5461676,513.0,556.0,570.0,48.0,159.0,206.0,510.95,496.3
395,1555416726.6201482,502.0,542.0,593.0,48.0,159.0,195.0,510.7,500.75
396,1555416726.7008893,497.0,402.0,671.0,48.0,159.0,195.0,509.9,496.0
397,1555416726.786691,497.0,402.0,671.0,48.0,159.0,195.0,508.75,491.6
398,1555416726.8758903,497.0,478.0,587.0,44.0,159.0,195.0,509.0,492.75
399,1555416726.950478,503.0,461.0,476.0,44.0,159.0,195.0,508.5,490.65
400,1555416727.0389287,540.0,561.0,493.0,44.0,159.0,195.0,509.4,491.0
401,1555416727.1193213,527.0,550.0,567.0,43.0,159.0,195.0,510.95,494.25
402,1555416727.2084258,502.0,542.0,593.0,43.0,159.0,195.0,510.45,494.6
403,1555416727.2877665,497.0,402.0,671.0,43.0,159.0,195.0,510.45,490.8
404,1555416727.3760993,514.0,389.0,553.0,43.0,172.0,195.0,511.0,487.2
405,1555416727.4574819,455.0,420.0,394.0,85.0,172.0,277.0,506.75,480.15
406,1555416727.5311444,488.0,531.0,399.0,85.0,172.0,277.0,504.8,479.2
407,1555416727.6074116,474.0,513.0,403.0,85.0,172.0,277.0,502.85,477.05
408,1555416727.6847112,473.0,520.0,492.0,85.0,172.0,277.0,501.65,482.95
409,1555416727.7743635,536.0,516.0,482.0,85.0,172.0,277.0,503.6,488.65
410,1555416727.8442225,531.0,542.0,427.0,85.0,172.0,277.0,503.65,490.8
411,1555416727.9168596,493.0,501.0,489.0,85.0,172.0,277.0,503.45,491.95
412,1555416727.9920366,499.0,518.0,545.0,85.0,172.0,277.0,503.25,494.8
413,1555416728.0747662,503.0,502.0,496.0,85.0,172.0,277.0,502.05,492.4
414,1555416728.1538303,526.0,569.0,436.0,85.0,180.0,277.0,502.7,493.05
415,1555416728.237099,506.0,474.0,512.0,85.0,180.0,277.0,502.9,489.65
416,1555416728.3116753,522.0,522.0,481.0,85.0,180.0,277.0,504.15,495.65
417,1555416728.4129221,519.0,526.0,497.0,85.0,180.0,277.0,505.25,501.85
418,1555416728.495434,488.0,492.0,519.0,85.0,180.0,277.0,504.8,502.55
419,1555416728.5724614,507.0,459.0,468.0,85.0,180.0,277.0,505.0,502.45
420,1555416728.6586032,528.0,510.0,491.0,81.0,180.0,277.0,504.4,499.9
421,1555416728.7420347,519.0,478.0,530.0,81.0,180.0,277.0,504.0,496.3
422,1555416728.818584,530.0,535.0,532.0,81.0,180.0,277.0,505.4,495.95
423,1555416728.899009,510.0,478.0,487.0,81.0,180.0,159.0,506.05,499.75
424,1555416728.991867,512.0,504.0,491.0,81.0,149.0,151.0,505.95,505.5
425,1555416729.068155,492.0,465.0,470.0,63.0,110.0,146.0,507.8,507.75
426,1555416729.1569562,514.0,488.0,492.0,63.0,110.0,142.0,509.1,505.6
427,1555416729.2437649,513.0,476.0,508.0,63.0,110.0,118.0,511.05,503.75
428,1555416729.3194263,515.0,512.0,507.0,48.0,110.0,118.0,513.15,503.35
429,1555416729.3933916,500.0,489.0,487.0,43.0,110.0,118.0,511.35,502.0
430,1555416729.472263,506.0,497.0,470.0,42.0,110.0,109.0,510.1,499.75
431,1555416729.5425878,512.0,548.0,477.0,42.0,110.0,109.0,511.05,502.1
432,1555416729.6177347,484.0,432.0,476.0,46.0,137.0,96.0,510.3,497.8
433,1555416729.6941829,499.0,427.0,433.0,46.0,142.0,99.0,510.1,494.05
434,1555416729.7796772,523.0,521.0,447.0,46.0,121.0,99.0,509.95,491.65
435,1555416729.8633254,510.0,465.0,445.0,46.0,121.0,99.0,510.15,491.2
436,1555416729.9420524,508.0,464.0,458.0,46.0,121.0,99.0,509.45,488.3
437,1555416730.0366848,508.0,437.0,501.0,46.0,121.0,99.0,508.9,483.85
438,1555416730.1227686,522.0,518.0,496.0,46.0,121.0,99.0,510.6,485.15
439,1555416730.2014236,528.0,521.0,493.0,46.0,121.0,99.0,511.65,488.25
440,1555416730.2743847,530.0,510.0,510.0,46.0,121.0,99.0,511.75,488.25
441,1555416730.347291,513.0,489.0,494.0,46.0,121.0,99.0,511.45,488.8
442,1555416730.4183989,508.0,525.0,503.0,46.0,121.0,77.0,510.35,488.3
443,1555416730.5008004,488.0,538.0,524.0,46.0,121.0,91.0,509.25,491.3
444,1555416730.5829344,507.0,586.0,545.0,46.0,159.0,112.0,509.0,495.4
445,1555416730.6621418,504.0,508.0,528.0,46.0,159.0,112.0,509.6,497.55
446,1555416730.7428868,506.0,553.0,496.0,46.0,159.0,112.0,509.2,500.8
447,1555416730.822723,502.0,500.0,504.0,46.0,159.0,112.0,508.65,502.0
448,1555416730.9017937,507.0,537.0,515.0,46.0,159.0,112.0,508.25,503.25
449,1555416730.980643,506.0,524.0,496.0,46.0,159.0,112.0,508.55,505.0
450,1555416731.0554905,520.0,502.0,491.0,46.0,159.0,112.0,509.25,505.25
451,1555416731.1466804,503.0,489.0,476.0,46.0,159.0,112.0,508.8,502.3
452,1555416731.2286935,483.0,487.0,513.0,47.0,159.0,112.0,508.75,505.05
453,1555416731.306777,499.0,474.0,518.0,47.0,149.0,100.0,508.75,507.4
454,1555416731.4048014,515.0,490.0,512.0,47.0,149.0,100.0,508.35,505.85
455,1555416731.481305,519.0,529.0,505.0,47.0,149.0,87.0,508.8,509.05
456,1555416731.5625188,506.0,504.0,492.0,47.0,149.0,69.0,508.7,511.05
457,1555416731.6567094,506.0,492.0,481.0,47.0,112.0,69.0,508.6,513.8
458,1555416731.7415526,524.0,562.0,489.0,47.0,112.0,69.0,508.7,516.0
459,1555416731.841219,492.0,484.0,504.0,47.0,112.0,69.0,506.9,514.15
460,1555416731.926603,495.0,481.0,500.0,41.0,112.0,69.0,505.15,512.7
461,1555416731.9999838,507.0,500.0,519.0,41.0,112.0,69.0,504.85,513.25
462,1555416732.0759358,494.0,535.0,533.0,41.0,112.0,69.0,504.15,513.75
463,1555416732.1509411,511.0,527.0,519.0,41.0,112.0,69.0,505.3,513.2
464,1555416732.2230434,509.0,447.0,528.0,41.0,115.0,57.0,505.4,506.25
465,1555416732.2971017,524.0,525.0,560.0,41.0,115.0,84.0,506.4,507.1
466,1555416732.3797274,511.0,524.0,520.0,41.0,115.0,84.0,506.65,505.65
467,1555416732.4711733,504.0,549.0,472.0,41.0,115.0,88.0,506.75,508.1
468,1555416732.5535321,493.0,512.0,489.0,41.0,115.0,88.0,506.05,506.85
469,1555416732.6303015,498.0,495.0,515.0,41.0,115.0,88.0,505.65,505.4
470,1555416732.7033567,498.0,467.0,540.0,41.0,115.0,88.0,504.55,503.65
471,1555416732.7798386,531.0,649.0,506.0,48.0,202.0,88.0,505.95,511.65
472,1555416732.856988,507.0,527.0,476.0,39.0,202.0,88.0,507.15,513.65
473,1555416732.9312897,511.0,528.0,491.0,39.0,202.0,88.0,507.75,516.35
474,1555416733.0039806,497.0,478.0,510.0,39.0,202.0,88.0,506.85,515.75
475,1555416733.075892,513.0,485.0,548.0,39.0,202.0,88.0,506.55,513.55
476,1555416733.146973,516.0,476.0,518.0,39.0,202.0,88.0,507.05,512.15
477,1555416733.217328,515.0,582.0,467.0,39.0,202.0,93.0,507.5,516.65
478,1555416733.2890177,497.0,463.0,441.0,39.0,202.0,119.0,506.15,511.7
479,1555416733.3697646,500.0,482.0,447.0,38.0,202.0,119.0,506.55,511.6
480,1555416733.4620798,502.0,473.0,466.0,38.0,202.0,119.0,506.9,511.2
481,1555416733.536403,511.0,498.0,519.0,38.0,202.0,119.0,507.1,511.1
482,1555416733.6152756,515.0,531.0,523.0,38.0,202.0,119.0,508.15,510.9
483,1555416733.6900218,515.0,452.0,605.0,38.0,202.0,164.0,508.35,507.15
484,1555416733.7676003,527.0,433.0,627.0,38.0,216.0,186.0,509.25,506.45
485,1555416733.8366385,533.0,421.0,650.0,40.0,228.0,209.0,509.7,501.25
486,1555416733.9082124,519.0,464.0,655.0,40.0,228.0,214.0,510.1,498.25
487,1555416733.9804573,507.0,426.0,658.0,40.0,228.0,217.0,510.25,492.1
488,1555416734.0756576,515.0,517.0,647.0,36.0,228.0,217.0,511.35,492.35
489,1555416734.1548855,493.0,435.0,612.0,40.0,228.0,217.0,511.1,489.35
490,1555416734.226625,509.0,433.0,621.0,40.0,228.0,217.0,511.65,487.65
491,1555416734.298046,522.0,542.0,640.0,40.0,161.0,217.0,511.2,482.3
492,1555416734.380493,491.0,501.0,615.0,42.0,161.0,217.0,510.4,481.0
493,1555416734.4516356,503.0,545.0,624.0,42.0,161.0,217.0,510.0,481.85
494,1555416734.523383,515.0,554.0,611.0,42.0,161.0,217.0,510.9,485.65
495,1555416734.6108205,526.0,438.0,547.0,42.0,161.0,217.0,511.55,483.3
496,1555416734.6896367,515.0,305.0,574.0,42.0,277.0,217.0,511.5,474.75
497,1555416734.761244,493.0,267.0,589.0,42.0,287.0,217.0,510.4,459.0
498,1555416734.8551495,513.0,453.0,636.0,42.0,287.0,211.0,511.2,458.5
499,1555416734.9396143,510.0,265.0,549.0,42.0,289.0,192.0,511.7,447.65
500,1555416735.0084443,478.0,505.0,512.0,55.0,289.0,146.0,510.5,449.25
501,1555416735.129554,484.0,639.0,610.0,55.0,374.0,146.0,509.15,456.3
502,1555416735.2042706,504.0,564.0,500.0,55.0,374.0,158.0,508.6,457.95
503,1555416735.2853715,502.0,558.0,484.0,55.0,374.0,174.0,507.95,463.25
504,1555416735.355365,540.0,616.0,526.0,62.0,374.0,174.0,508.6,472.4
505,1555416735.4281914,551.0,641.0,475.0,73.0,376.0,183.0,509.5,483.4
506,1555416735.507712,540.0,699.0,465.0,73.0,434.0,193.0,510.55,495.15
507,1555416735.5869524,527.0,544.0,499.0,73.0,434.0,182.0,511.55,501.05
508,1555416735.6661549,599.0,779.0,368.0,121.0,514.0,272.0,515.75,514.15
509,1555416735.7422292,597.0,580.0,288.0,121.0,514.0,352.0,520.95,521.4
510,1555416735.8226967,586.0,605.0,392.0,121.0,514.0,352.0,524.8,530.0
511,1555416735.8963962,641.0,678.0,704.0,163.0,514.0,416.0,530.75,536.8
512,1555416735.9754412,637.0,613.0,994.0,163.0,514.0,706.0,538.05,542.4
513,1555416736.0611274,733.0,648.0,1020.0,255.0,514.0,732.0,549.55,547.55
514,1555416736.1438744,743.0,630.0,799.0,265.0,514.0,732.0,560.95,551.35
515,1555416736.2253885,648.0,611.0,719.0,265.0,514.0,732.0,567.05,560.0
516,1555416736.297523,471.0,689.0,681.0,272.0,514.0,732.0,564.85,579.2
517,1555416736.3709319,402.0,632.0,422.0,341.0,514.0,732.0,560.3,597.45
518,1555416736.4444368,396.0,540.0,144.0,347.0,514.0,876.0,554.45,601.8
519,1555416736.5171952,401.0,531.0,1.0,347.0,274.0,1019.0,549.0,615.1
520,1555416736.6109338,365.0,456.0,1.0,378.0,323.0,1019.0,543.35,612.65
521,1555416736.7059681,374.0,567.0,0.0,378.0,323.0,1020.0,537.85,609.05
522,1555416736.786832,405.0,601.0,39.0,378.0,323.0,1020.0,532.9,610.9
523,1555416736.8680708,380.0,520.0,213.0,378.0,323.0,1020.0,526.8,609.0
524,1555416736.9582152,458.0,669.0,535.0,378.0,323.0,1020.0,522.7,611.65
525,1555416737.0393472,461.0,661.0,719.0,378.0,323.0,1020.0,518.2,612.65
526,1555416737.1134708,522.0,633.0,594.0,378.0,323.0,1020.0,517.3,609.35
527,1555416737.1879556,500.0,529.0,490.0,378.0,323.0,1020.0,515.95,608.6
528,1555416737.2707398,487.0,513.0,403.0,378.0,233.0,1020.0,510.35,595.3
529,1555416737.344053,512.0,456.0,311.0,378.0,233.0,1020.0,506.1,589.1
530,1555416737.4257889,513.0,380.0,285.0,378.0,309.0,1020.0,502.45,577.85
531,1555416737.4996455,509.0,427.0,296.0,378.0,309.0,1020.0,495.85,565.3
532,1555416737.5869927,530.0,574.0,347.0,378.0,309.0,1020.0,490.5,563.35
533,1555416737.6770146,511.0,487.0,458.0,378.0,309.0,799.0,479.4,555.3
534,1555416737.7605894,518.0,537.0,569.0,283.0,309.0,719.0,468.15,550.65
535,1555416737.8371632,507.0,526.0,704.0,165.0,309.0,719.0,461.1,546.4
536,1555416737.9190724,465.0,643.0,612.0,165.0,289.0,719.0,460.8,544.1
537,1555416737.9973009,351.0,430.0,608.0,179.0,289.0,719.0,458.25,534.0
538,1555416738.0693529,482.0,504.0,520.0,179.0,289.0,719.0,462.55,532.2
539,1555416738.140192,486.0,623.0,368.0,179.0,289.0,719.0,466.8,536.8
540,1555416738.2167063,517.0,723.0,247.0,179.0,343.0,719.0,474.4,550.15
541,1555416738.2916443,671.0,966.0,364.0,320.0,586.0,680.0,489.25,570.1
542,1555416738.376526,554.0,862.0,553.0,320.0,586.0,506.0,496.7,583.15
543,1555416738.4719048,448.0,669.0,618.0,320.0,586.0,472.0,500.1,590.6
544,1555416738.5811298,373.0,555.0,716.0,320.0,586.0,472.0,495.85,584.9
545,1555416738.6747518,374.0,448.0,616.0,320.0,586.0,469.0,491.5,574.25
546,1555416738.7486587,431.0,604.0,645.0,320.0,586.0,469.0,486.95,572.8
547,1555416738.8199787,471.0,422.0,652.0,320.0,586.0,469.0,485.5,567.45
548,1555416738.892589,548.0,398.0,914.0,320.0,586.0,667.0,488.55,561.7
549,1555416738.9631345,576.0,314.0,1020.0,320.0,652.0,773.0,491.75,554.6
550,1555416739.0327957,535.0,240.0,816.0,320.0,726.0,773.0,492.85,547.6
551,1555416739.1076977,531.0,288.0,350.0,320.0,726.0,773.0,493.95,540.65
552,1555416739.1941743,518.0,407.0,379.0,320.0,726.0,773.0,493.35,532.3
553,1555416739.2752485,512.0,463.0,641.0,320.0,726.0,773.0,493.4,531.1
554,1555416739.3445182,513.0,501.0,438.0,320.0,726.0,773.0,493.15,529.3
555,1555416739.43586,493.0,518.0,233.0,320.0,726.0,787.0,492.45,528.9
556,1555416739.5210447,517.0,396.0,625.0,320.0,726.0,787.0,495.05,516.55
557,1555416739.5989983,534.0,379.0,733.0,298.0,726.0,787.0,504.2,514.0
558,1555416739.6745086,532.0,337.0,652.0,298.0,726.0,787.0,506.7,505.65
559,1555416739.7698174,490.0,359.0,569.0,298.0,726.0,787.0,506.9,492.45
560,1555416739.8581948,499.0,439.0,117.0,298.0,726.0,903.0,506.0,478.25
561,1555416739.935277,526.0,354.0,286.0,203.0,622.0,903.0,498.75,447.65
562,1555416740.010507,547.0,296.0,750.0,203.0,429.0,903.0,498.4,419.35
563,1555416740.0938878,550.0,424.0,773.0,203.0,364.0,903.0,503.5,407.1
564,1555416740.163702,495.0,393.0,445.0,202.0,364.0,903.0,509.6,399.0
565,1555416740.2467632,499.0,420.0,653.0,145.0,364.0,903.0,515.85,397.6
566,1555416740.324387,505.0,406.0,989.0,105.0,278.0,903.0,519.55,387.7
567,1555416740.4027297,508.0,256.0,814.0,86.0,278.0,903.0,521.4,379.4
568,1555416740.4733043,556.0,257.0,687.0,86.0,278.0,903.0,521.8,372.35
569,1555416740.5539162,557.0,285.0,427.0,67.0,278.0,872.0,520.85,370.9
570,1555416740.6321335,511.0,365.0,0.0,67.0,262.0,989.0,519.65,377.15
571,1555416740.734356,514.0,450.0,1.0,67.0,262.0,989.0,518.8,385.25
572,1555416740.8093953,564.0,447.0,175.0,74.0,262.0,989.0,521.1,387.25
573,1555416740.8915424,541.0,528.0,67.0,74.0,272.0,989.0,522.55,390.5
574,1555416740.9615629,529.0,438.0,201.0,74.0,272.0,989.0,523.35,387.35
575,1555416741.0349512,533.0,416.0,482.0,74.0,272.0,989.0,525.35,382.25
576,1555416741.120374,543.0,436.0,409.0,74.0,272.0,989.0,526.65,384.25
577,1555416741.212009,526.0,397.0,374.0,74.0,272.0,989.0,526.25,385.15
578,1555416741.2846756,549.0,407.0,405.0,74.0,272.0,989.0,527.1,388.65
579,1555416741.356036,519.0,435.0,713.0,69.0,272.0,989.0,528.55,392.45
580,1555416741.4261048,522.0,525.0,182.0,69.0,272.0,989.0,529.7,396.75
581,1555416741.5030956,503.0,364.0,241.0,69.0,272.0,989.0,528.55,397.25
582,1555416741.579707,536.0,448.0,392.0,69.0,272.0,989.0,528.0,404.85
583,1555416741.6630418,502.0,545.0,376.0,69.0,289.0,989.0,525.6,410.9
584,1555416741.7662113,522.0,497.0,631.0,65.0,289.0,989.0,526.95,416.1
585,1555416741.8491116,575.0,463.0,694.0,73.0,289.0,989.0,530.75,418.25
586,1555416741.9410293,498.0,480.0,431.0,77.0,289.0,814.0,530.4,421.95
587,1555416742.0183163,415.0,429.0,417.0,160.0,288.0,713.0,525.75,430.6
588,1555416742.0888712,400.0,512.0,506.0,175.0,260.0,713.0,517.95,443.35
589,1555416742.1597028,469.0,561.0,499.0,175.0,197.0,713.0,513.55,457.15
590,1555416742.2356648,474.0,589.0,538.0,175.0,225.0,712.0,511.7,468.35
591,1555416742.3106432,444.0,517.0,657.0,175.0,225.0,646.0,508.2,471.7
592,1555416742.390299,447.0,471.0,622.0,175.0,225.0,646.0,502.35,472.9
593,1555416742.4666731,400.0,464.0,663.0,175.0,225.0,531.0,495.3,469.7
594,1555416742.5421119,460.0,400.0,664.0,175.0,225.0,531.0,491.85,467.8
595,1555416742.615379,479.0,380.0,641.0,175.0,225.0,531.0,489.15,466.0
596,1555416742.695486,494.0,330.0,624.0,175.0,259.0,531.0,486.7,460.7
597,1555416742.7784793,497.0,438.0,500.0,175.0,259.0,531.0,485.25,462.75
598,1555416742.866926,516.0,425.0,551.0,175.0,259.0,531.0,483.6,463.65
599,1555416742.9470906,472.0,486.0,536.0,175.0,259.0,512.0,481.25,466.2
600,1555416743.0312152,530.0,523.0,474.0,175.0,259.0,453.0,481.65,466.1
601,1555416743.1095643,523.0,485.0,517.0,175.0,259.0,318.0,482.65,472.15
602,1555416743.1940572,487.0,462.0,635.0,175.0,259.0,318.0,480.2,472.85
603,1555416743.271127,529.0,641.0,560.0,175.0,311.0,277.0,481.55,477.65
604,1555416743.356026,505.0,550.0,581.0,175.0,311.0,277.0,480.7,480.3
605,1555416743.4314077,458.0,481.0,1019.0,130.0,311.0,602.0,474.85,481.2
606,1555416743.5022416,481.0,464.0,1021.0,130.0,311.0,604.0,474.0,480.4
607,1555416743.5906103,508.0,486.0,725.0,130.0,311.0,547.0,478.65,483.25
608,1555416743.6727853,606.0,551.0,676.0,206.0,311.0,547.0,488.95,485.2
609,1555416743.7556732,547.0,565.0,826.0,206.0,311.0,547.0,492.85,485.4
610,1555416743.8278196,511.0,477.0,678.0,206.0,311.0,547.0,494.7,479.8
611,1555416743.903488,533.0,443.0,619.0,206.0,311.0,547.0,499.15,476.1
612,1555416743.9736185,548.0,509.0,420.0,206.0,311.0,601.0,504.2,478.0
613,1555416744.0724523,515.0,507.0,589.0,148.0,311.0,601.0,509.95,480.15
614,1555416744.1515608,507.0,547.0,668.0,148.0,311.0,601.0,512.3,487.5
615,1555416744.227527,528.0,571.0,468.0,148.0,311.0,601.0,514.75,497.05
616,1555416744.3086917,510.0,506.0,660.0,148.0,216.0,601.0,515.55,505.85
617,1555416744.3840022,557.0,521.0,800.0,148.0,216.0,601.0,518.55,510.0
618,1555416744.4738972,538.0,449.0,409.0,148.0,198.0,612.0,519.65,511.2
619,1555416744.5757132,564.0,458.0,612.0,148.0,198.0,612.0,524.25,509.8
620,1555416744.6452603,530.0,581.0,615.0,148.0,198.0,612.0,524.25,512.7
621,1555416744.7278328,503.0,529.0,17.0,148.0,198.0,1004.0,523.25,514.9
622,1555416744.8110344,499.0,573.0,1.0,148.0,198.0,1020.0,523.85,520.45
623,1555416744.8889635,469.0,529.0,742.0,148.0,138.0,1020.0,520.85,514.85
624,1555416744.9671957,513.0,571.0,788.0,148.0,138.0,1020.0,521.25,515.9
625,1555416745.0374405,503.0,558.0,308.0,137.0,138.0,1020.0,523.5,519.75
626,1555416745.1134791,497.0,559.0,161.0,137.0,138.0,825.0,524.3,524.5
627,1555416745.1918104,466.0,532.0,253.0,140.0,138.0,825.0,522.2,526.8
628,1555416745.2860572,481.0,530.0,277.0,98.0,138.0,825.0,515.95,525.75
629,1555416745.3574376,502.0,606.0,285.0,98.0,163.0,799.0,513.7,527.8
630,1555416745.4323184,482.0,524.0,292.0,98.0,163.0,799.0,512.25,530.15
631,1555416745.5084846,490.0,506.0,326.0,98.0,157.0,799.0,510.1,533.3
632,1555416745.5871623,524.0,532.0,395.0,98.0,157.0,799.0,508.9,534.45
633,1555416745.6810348,504.0,494.0,437.0,98.0,157.0,799.0,508.35,533.8
634,1555416745.7589529,501.0,627.0,397.0,98.0,178.0,799.0,508.05,537.8
635,1555416745.8306773,494.0,484.0,364.0,98.0,178.0,799.0,506.35,533.45
636,1555416745.9040303,509.0,497.0,494.0,98.0,178.0,799.0,506.3,533.0
637,1555416745.9942596,508.0,544.0,573.0,98.0,178.0,787.0,503.85,534.15
638,1555416746.0678232,481.0,614.0,522.0,98.0,169.0,787.0,501.0,542.4
639,1555416746.1416605,514.0,673.0,617.0,64.0,189.0,787.0,498.5,553.15
640,1555416746.2124696,507.0,446.0,678.0,58.0,227.0,787.0,497.35,546.4
641,1555416746.2850006,511.0,480.0,858.0,58.0,227.0,857.0,497.75,543.95
642,1555416746.3800569,499.0,475.0,458.0,58.0,227.0,697.0,497.75,539.05
643,1555416746.4607155,539.0,485.0,641.0,73.0,227.0,697.0,501.25,536.85
644,1555416746.5384917,512.0,479.0,620.0,73.0,227.0,697.0,501.2,532.25
645,1555416746.6428235,515.0,507.0,444.0,73.0,227.0,697.0,501.8,529.7
646,1555416746.7494762,497.0,456.0,616.0,73.0,227.0,605.0,501.8,524.55
647,1555416746.8384051,482.0,472.0,414.0,58.0,227.0,581.0,502.6,521.55
648,1555416746.917517,504.0,484.0,604.0,58.0,227.0,573.0,503.75,519.25
649,1555416746.9931471,535.0,524.0,824.0,58.0,227.0,566.0,505.4,515.15
650,1555416747.0649252,518.0,493.0,376.0,58.0,227.0,532.0,507.2,513.6
651,1555416747.1381135,476.0,440.0,528.0,63.0,233.0,494.0,506.5,510.3
652,1555416747.2129903,494.0,545.0,564.0,63.0,233.0,494.0,505.0,510.95
653,1555416747.2875106,516.0,427.0,468.0,63.0,246.0,494.0,505.6,507.6
654,1555416747.3754323,498.0,397.0,536.0,63.0,276.0,494.0,505.45,496.1
655,1555416747.4519942,515.0,644.0,789.0,63.0,276.0,482.0,506.5,504.1
656,1555416747.5635188,520.0,475.0,644.0,63.0,276.0,482.0,507.05,503.0
657,1555416747.6444201,514.0,511.0,657.0,63.0,276.0,482.0,507.35,501.35
658,1555416747.7148597,498.0,501.0,659.0,63.0,276.0,482.0,508.2,495.7
659,1555416747.7840812,517.0,440.0,526.0,63.0,247.0,482.0,508.35,484.05
660,1555416747.8557801,543.0,404.0,878.0,67.0,247.0,502.0,510.15,481.95
661,1555416747.944669,521.0,456.0,1021.0,67.0,247.0,645.0,510.65,480.75
662,1555416748.0225818,524.0,473.0,598.0,67.0,247.0,645.0,511.9,480.65
663,1555416748.0952826,488.0,492.0,608.0,67.0,247.0,645.0,509.35,481.0
664,1555416748.1852534,518.0,488.0,921.0,67.0,247.0,645.0,509.65,481.45
665,1555416748.2600727,493.0,514.0,726.0,67.0,247.0,645.0,508.55,481.8
666,1555416748.335913,476.0,516.0,325.0,67.0,247.0,696.0,507.5,484.8
667,1555416748.4067278,500.0,530.0,252.0,67.0,247.0,769.0,508.4,487.7
668,1555416748.4805665,510.0,556.0,386.0,67.0,247.0,769.0,508.7,491.3
669,1555416748.5585032,471.0,485.0,431.0,72.0,247.0,769.0,505.5,489.35
670,1555416748.6409295,516.0,531.0,390.0,72.0,247.0,769.0,505.4,491.25
671,1555416748.7289164,481.0,493.0,457.0,72.0,247.0,769.0,505.65,493.9
672,1555416748.8074548,503.0,514.0,345.0,72.0,247.0,769.0,506.1,492.35
673,1555416748.884112,505.0,568.0,353.0,72.0,247.0,769.0,505.55,499.4
674,1555416748.9631722,486.0,478.0,343.0,72.0,240.0,769.0,504.95,503.45
675,1555416749.031182,476.0,576.0,282.0,72.0,172.0,769.0,503.0,500.05
676,1555416749.119018,500.0,529.0,274.0,72.0,172.0,769.0,502.0,502.75
677,1555416749.206274,509.0,511.0,399.0,72.0,172.0,769.0,501.75,502.75
678,1555416749.29654,502.0,476.0,418.0,72.0,172.0,769.0,501.95,501.5
679,1555416749.3799796,515.0,489.0,345.0,72.0,172.0,769.0,501.85,503.95
680,1555416749.469992,542.0,553.0,279.0,71.0,120.0,769.0,501.8,511.4
681,1555416749.5542326,514.0,481.0,577.0,71.0,103.0,669.0,501.45,512.65
682,1555416749.6428037,511.0,492.0,444.0,71.0,100.0,669.0,500.8,513.6
683,1555416749.7425365,487.0,500.0,439.0,71.0,100.0,669.0,500.75,514.0
684,1555416749.821148,495.0,553.0,457.0,71.0,100.0,474.0,499.6,517.25
685,1555416749.899782,507.0,454.0,467.0,71.0,122.0,325.0,500.3,514.25
686,1555416749.992678,508.0,514.0,829.0,71.0,122.0,577.0,501.9,514.15
687,1555416750.0758402,534.0,608.0,468.0,71.0,154.0,555.0,503.6,518.05
688,1555416750.1494853,520.0,499.0,572.0,71.0,154.0,555.0,504.1,515.2
689,1555416750.2474613,523.0,652.0,721.0,66.0,198.0,555.0,506.7,523.55
690,1555416750.325967,523.0,652.0,721.0,66.0,198.0,555.0,507.05,529.6
691,1555416750.4139054,533.0,486.0,547.0,66.0,198.0,555.0,509.65,529.25
692,1555416750.4885285,520.0,525.0,601.0,66.0,198.0,555.0,510.5,529.8
693,1555416750.559984,486.0,518.0,533.0,66.0,198.0,555.0,509.55,527.3
694,1555416750.6318607,501.0,600.0,463.0,66.0,198.0,555.0,510.3,533.4
695,1555416750.718506,492.0,502.0,527.0,56.0,198.0,555.0,511.1,529.7
696,1555416750.8065615,446.0,577.0,812.0,96.0,198.0,550.0,508.4,532.1
697,1555416750.8882167,406.0,564.0,671.0,136.0,198.0,550.0,503.25,534.75
698,1555416750.9594884,406.0,564.0,671.0,136.0,198.0,550.0,498.45,539.15
699,1555416751.0320287,533.0,486.0,547.0,136.0,198.0,550.0,499.35,539.0
700,1555416751.1003108,520.0,525.0,601.0,128.0,198.0,390.0,498.25,537.6
701,1555416751.171545,486.0,518.0,533.0,128.0,198.0,390.0,496.85,539.45
702,1555416751.2657893,501.0,600.0,463.0,128.0,198.0,390.0,496.35,544.85
703,1555416751.3398957,492.0,502.0,527.0,128.0,198.0,372.0,496.6,544.95
704,1555416751.4419813,446.0,577.0,812.0,128.0,198.0,366.0,494.15,546.15
705,1555416751.5206552,406.0,564.0,671.0,128.0,166.0,366.0,489.1,551.65
706,1555416751.6016738,455.0,629.0,714.0,128.0,166.0,349.0,486.45,557.4
707,1555416751.6858037,544.0,649.0,1020.0,138.0,166.0,557.0,486.95,559.45
708,1555416751.7649224,572.0,492.0,1020.0,166.0,166.0,557.0,489.55,559.1
709,1555416751.8531778,475.0,475.0,574.0,166.0,177.0,557.0,487.15,550.25
710,1555416751.950099,468.0,513.0,339.0,166.0,174.0,681.0,484.4,543.3
711,1555416752.024478,545.0,400.0,571.0,166.0,249.0,681.0,485.0,539.0
712,1555416752.0961497,551.0,513.0,628.0,166.0,249.0,681.0,486.55,538.4
713,1555416752.1785283,517.0,479.0,375.0,166.0,249.0,681.0,488.1,536.45
714,1555416752.252279,529.0,428.0,234.0,166.0,249.0,786.0,489.5,527.85
715,1555416752.3333716,553.0,484.0,255.0,166.0,249.0,786.0,492.55,526.95
716,1555416752.4185255,546.0,382.0,374.0,166.0,267.0,786.0,497.55,517.2
717,1555416752.5037932,510.0,448.0,518.0,166.0,267.0,786.0,502.75,511.4
718,1555416752.5779383,502.0,511.0,544.0,166.0,267.0,786.0,507.55,508.75
719,1555416752.656815,561.0,535.0,527.0,166.0,267.0,786.0,508.95,511.2
720,1555416752.7366903,618.0,483.0,467.0,212.0,267.0,786.0,513.85,509.1
721,1555416752.822123,456.0,608.0,265.0,212.0,267.0,786.0,512.35,513.6
722,1555416752.9059844,509.0,667.0,208.0,212.0,285.0,812.0,512.75,516.95
723,1555416752.9975364,589.0,588.0,375.0,212.0,285.0,812.0,517.6,521.25
724,1555416753.074824,607.0,535.0,504.0,212.0,285.0,812.0,525.65,519.15
725,1555416753.167509,537.0,503.0,453.0,163.0,285.0,812.0,532.2,516.1
726,1555416753.252271,530.0,403.0,684.0,162.0,285.0,812.0,535.95,504.8
727,1555416753.3312733,507.0,384.0,774.0,162.0,285.0,812.0,534.1,491.55
728,1555416753.4236002,496.0,521.0,565.0,162.0,285.0,566.0,530.3,493.0
729,1555416753.5189214,527.0,519.0,532.0,162.0,285.0,566.0,532.9,495.2
730,1555416753.5987842,498.0,489.0,523.0,162.0,285.0,566.0,534.4,494.0
731,1555416753.6686978,497.0,539.0,481.0,162.0,285.0,566.0,532.0,500.95
732,1555416753.7516406,464.0,416.0,436.0,162.0,285.0,566.0,527.65,496.1
733,1555416753.8327522,489.0,428.0,463.0,162.0,285.0,566.0,526.25,493.55
734,1555416753.9132032,506.0,478.0,493.0,162.0,285.0,566.0,525.1,496.05
735,1555416754.0002105,505.0,438.0,415.0,162.0,285.0,566.0,522.7,493.75
736,1555416754.0747051,565.0,490.0,463.0,162.0,283.0,566.0,523.65,499.15
737,1555416754.1653633,625.0,540.0,921.0,169.0,283.0,713.0,529.4,503.75
738,1555416754.250095,681.0,445.0,1021.0,225.0,283.0,813.0,538.35,500.45
739,1555416754.3302958,688.0,332.0,943.0,232.0,335.0,813.0,544.7,490.3
740,1555416754.4015925,552.0,254.0,551.0,232.0,413.0,813.0,541.4,478.85
741,1555416754.4712856,503.0,404.0,521.0,224.0,413.0,813.0,543.75,468.65
742,1555416754.5486867,459.0,399.0,517.0,229.0,334.0,646.0,541.25,455.25
743,1555416754.6255484,354.0,500.0,369.0,334.0,286.0,652.0,529.5,450.85
744,1555416754.697701,343.0,580.0,173.0,345.0,326.0,848.0,516.3,453.1
745,1555416754.770741,446.0,747.0,40.0,345.0,493.0,981.0,511.75,465.3
746,1555416754.881648,497.0,590.0,79.0,345.0,493.0,981.0,510.1,474.65
747,1555416754.9656463,519.0,428.0,328.0,345.0,493.0,981.0,510.7,476.85
748,1555416755.0502496,560.0,326.0,450.0,345.0,493.0,981.0,513.9,467.1
749,1555416755.1316617,475.0,118.0,598.0,345.0,629.0,981.0,511.3,447.05
750,1555416755.21167,406.0,424.0,413.0,345.0,629.0,981.0,506.7,443.8
751,1555416755.281362,334.0,623.0,299.0,354.0,629.0,981.0,498.55,448.0
752,1555416755.3594236,557.0,614.0,518.0,354.0,629.0,981.0,503.2,457.9
753,1555416755.4342246,551.0,337.0,761.0,354.0,629.0,981.0,506.3,453.35
754,1555416755.5143163,537.0,493.0,578.0,354.0,629.0,981.0,507.85,454.1
755,1555416755.5873256,466.0,526.0,257.0,354.0,629.0,981.0,505.9,458.5
756,1555416755.6687999,474.0,426.0,467.0,354.0,629.0,981.0,501.35,455.3
757,1555416755.7552385,474.0,415.0,518.0,354.0,629.0,981.0,493.8,449.05
758,1555416755.8369017,488.0,452.0,502.0,354.0,629.0,903.0,484.15,449.4
759,1555416755.9079432,504.0,582.0,534.0,226.0,629.0,721.0,474.95,461.9
760,1555416755.9924288,482.0,480.0,557.0,226.0,629.0,721.0,471.45,473.2
761,1555416756.0776024,497.0,418.0,459.0,226.0,629.0,721.0,471.15,473.9
762,1555416756.1465821,537.0,356.0,560.0,226.0,629.0,721.0,475.05,471.75
763,1555416756.2178233,486.0,458.0,621.0,226.0,629.0,721.0,481.65,469.65
764,1555416756.2868738,478.0,660.0,433.0,226.0,629.0,721.0,488.4,473.65
765,1555416756.3594022,459.0,474.0,386.0,226.0,542.0,682.0,489.05,460.0
766,1555416756.4327538,495.0,427.0,631.0,226.0,542.0,504.0,488.95,451.85
767,1555416756.514031,489.0,427.0,580.0,226.0,542.0,504.0,487.45,451.8
768,1555416756.584679,475.0,521.0,329.0,223.0,542.0,504.0,483.2,461.55
769,1555416756.657743,455.0,622.0,164.0,223.0,323.0,597.0,482.2,486.75
770,1555416756.737908,502.0,515.0,262.0,223.0,323.0,597.0,487.0,491.3
771,1555416756.8164065,544.0,272.0,636.0,102.0,388.0,597.0,497.5,473.75
772,1555416756.8967068,527.0,505.0,692.0,96.0,388.0,597.0,496.0,468.3
773,1555416756.9839745,497.0,536.0,367.0,89.0,388.0,528.0,493.3,478.25
774,1555416757.0836906,493.0,454.0,548.0,89.0,388.0,528.0,491.1,476.3
775,1555416757.1633136,486.0,492.0,683.0,89.0,388.0,528.0,492.1,474.6
776,1555416757.2342014,490.0,530.0,488.0,89.0,388.0,528.0,492.9,479.8
777,1555416757.3286839,502.0,477.0,622.0,89.0,388.0,528.0,494.3,482.9
778,1555416757.4065106,499.0,545.0,625.0,89.0,388.0,528.0,494.85,487.55
779,1555416757.4878438,528.0,701.0,344.0,89.0,429.0,528.0,496.05,493.5
780,1555416757.5620222,515.0,560.0,498.0,89.0,429.0,528.0,497.7,497.5
781,1555416757.6343513,496.0,488.0,633.0,89.0,429.0,528.0,497.65,501.0
782,1555416757.7222981,529.0,600.0,495.0,89.0,429.0,528.0,497.25,513.2
783,1555416757.8039088,494.0,528.0,469.0,89.0,429.0,528.0,497.65,516.7
784,1555416757.9005325,496.0,440.0,594.0,89.0,429.0,528.0,498.55,505.7
785,1555416757.9795465,542.0,449.0,518.0,89.0,429.0,528.0,502.7,504.45
786,1555416758.05234,504.0,393.0,490.0,89.0,429.0,528.0,503.15,502.75
787,1555416758.1389952,497.0,368.0,598.0,89.0,429.0,528.0,503.55,499.8
788,1555416758.227829,523.0,567.0,555.0,89.0,429.0,528.0,505.95,502.1
789,1555416758.3123984,503.0,473.0,471.0,58.0,429.0,430.0,508.35,494.65
790,1555416758.3896317,505.0,537.0,442.0,58.0,429.0,348.0,508.5,495.75
791,1555416758.4709983,508.0,518.0,485.0,56.0,333.0,348.0,506.7,508.05
792,1555416758.5410948,518.0,654.0,506.0,56.0,333.0,339.0,506.25,515.5
793,1555416758.623829,527.0,517.0,446.0,56.0,333.0,339.0,507.75,514.55
794,1555416758.696865,506.0,705.0,420.0,56.0,337.0,339.0,508.4,527.1
795,1555416758.7681959,517.0,586.0,491.0,52.0,337.0,289.0,509.95,531.8
796,1555416758.840924,529.0,569.0,516.0,48.0,337.0,289.0,511.9,533.75
797,1555416758.91191,538.0,639.0,415.0,48.0,337.0,289.0,513.7,541.85
798,1555416758.9878511,519.0,678.0,428.0,48.0,337.0,289.0,514.7,548.5
799,1555416759.0618138,519.0,620.0,514.0,48.0,337.0,218.0,514.25,544.45
800,1555416759.1394906,545.0,667.0,571.0,51.0,337.0,218.0,515.75,549.8
801,1555416759.2299876,503.0,619.0,500.0,51.0,337.0,183.0,516.1,556.35
802,1555416759.325651,519.0,553.0,508.0,51.0,337.0,183.0,515.6,554.0
803,1555416759.4083526,486.0,576.0,515.0,59.0,337.0,183.0,515.2,556.4
804,1555416759.4889078,483.0,658.0,511.0,62.0,337.0,183.0,514.55,567.3
805,1555416759.5744042,510.0,653.0,447.0,62.0,337.0,183.0,512.95,577.5
806,1555416759.6503232,503.0,618.0,443.0,62.0,337.0,183.0,512.9,588.75
807,1555416759.7292182,507.0,496.0,554.0,62.0,232.0,156.0,513.4,595.15
808,1555416759.8071878,512.0,540.0,516.0,62.0,232.0,156.0,512.85,593.8
809,1555416759.88578,497.0,514.0,546.0,62.0,209.0,156.0,512.55,595.85
810,1555416759.9657147,489.0,458.0,591.0,62.0,247.0,176.0,511.75,591.9
811,1555416760.044066,512.0,564.0,559.0,62.0,247.0,176.0,511.95,594.2
812,1555416760.1272216,501.0,496.0,511.0,62.0,247.0,176.0,511.1,586.3
813,1555416760.2042518,511.0,432.0,560.0,62.0,273.0,176.0,510.3,582.05
814,1555416760.2929895,532.0,379.0,501.0,62.0,299.0,176.0,511.6,565.75
815,1555416760.3689291,537.0,448.0,496.0,62.0,299.0,176.0,512.6,558.85
816,1555416760.4538026,537.0,356.0,487.0,62.0,322.0,176.0,513.0,548.2
817,1555416760.5278842,500.0,438.0,546.0,62.0,322.0,163.0,511.1,538.15
818,1555416760.618138,508.0,596.0,549.0,62.0,311.0,148.0,510.55,534.05
819,1555416760.6969903,491.0,462.0,526.0,62.0,311.0,148.0,509.15,526.15
820,1555416760.7744799,546.0,409.0,550.0,63.0,302.0,148.0,509.2,513.25
821,1555416760.8485982,467.0,485.0,429.0,79.0,302.0,162.0,507.4,506.55
822,1555416760.9187353,483.0,551.0,337.0,79.0,302.0,254.0,505.6,506.45
823,1555416760.9958,494.0,539.0,383.0,79.0,302.0,254.0,506.0,504.6
824,1555416761.0844586,506.0,595.0,527.0,79.0,297.0,254.0,507.15,501.45
825,1555416761.1715639,499.0,592.0,440.0,79.0,262.0,254.0,506.6,498.4
826,1555416761.2570384,515.0,509.0,444.0,79.0,240.0,254.0,507.2,492.95
827,1555416761.3474529,528.0,466.0,496.0,79.0,240.0,254.0,508.25,491.45
828,1555416761.4374607,509.0,272.0,568.0,79.0,324.0,254.0,508.1,478.05
829,1555416761.5079525,515.0,363.0,646.0,79.0,324.0,309.0,509.0,470.5
830,1555416761.5792298,514.0,391.0,643.0,79.0,324.0,309.0,510.25,467.15
831,1555416761.6662073,517.0,410.0,611.0,79.0,324.0,309.0,510.5,459.45
832,1555416761.7478216,502.0,498.0,530.0,79.0,324.0,309.0,510.55,459.55
833,1555416761.8344846,521.0,514.0,562.0,79.0,324.0,309.0,511.05,463.65
834,1555416761.910749,499.0,609.0,604.0,79.0,337.0,309.0,509.4,475.15
835,1555416761.998249,487.0,448.0,539.0,79.0,337.0,309.0,506.9,475.15
836,1555416762.0753107,503.0,490.0,554.0,79.0,337.0,309.0,505.2,481.85
837,1555416762.1603687,516.0,499.0,545.0,79.0,337.0,309.0,506.0,484.9
838,1555416762.2519267,498.0,529.0,520.0,79.0,337.0,309.0,505.5,481.55
839,1555416762.3275816,498.0,529.0,520.0,79.0,337.0,309.0,505.85,484.9
840,1555416762.4013228,530.0,527.0,443.0,63.0,337.0,309.0,505.05,490.8
841,1555416762.4700933,530.0,531.0,405.0,47.0,337.0,309.0,508.2,493.1
842,1555416762.5439734,512.0,460.0,426.0,43.0,337.0,263.0,509.65,488.55
843,1555416762.6147263,509.0,468.0,439.0,43.0,337.0,241.0,510.4,485.0
844,1555416762.6847508,501.0,508.0,464.0,43.0,337.0,241.0,510.15,480.65
845,1555416762.7563298,501.0,446.0,479.0,43.0,337.0,241.0,510.25,473.35
846,1555416762.830121,499.0,475.0,465.0,43.0,337.0,241.0,509.45,471.65
847,1555416762.906084,498.0,480.0,429.0,43.0,337.0,241.0,507.95,472.35
848,1555416762.974976,537.0,558.0,451.0,50.0,246.0,241.0,509.35,486.65
849,1555416763.0480049,518.0,476.0,478.0,50.0,218.0,238.0,509.5,492.3
850,1555416763.1191356,538.0,507.0,539.0,51.0,199.0,206.0,510.7,498.1
851,1555416763.1897964,531.0,565.0,552.0,51.0,163.0,199.0,511.4,505.85
852,1555416763.277331,515.0,599.0,524.0,51.0,163.0,199.0,512.05,510.9
853,1555416763.3465855,489.0,526.0,539.0,51.0,163.0,199.0,510.45,511.5
854,1555416763.4304335,504.0,511.0,544.0,51.0,153.0,149.0,510.7,506.6
855,1555416763.526653,493.0,453.0,496.0,49.0,153.0,149.0,511.0,506.85
856,1555416763.6023152,498.0,457.0,443.0,49.0,153.0,147.0,510.75,505.2
857,1555416763.6724844,501.0,471.0,487.0,49.0,153.0,147.0,510.0,503.8
858,1555416763.744808,526.0,473.0,593.0,49.0,153.0,188.0,511.4,501.0
859,1555416763.8409328,521.0,529.0,578.0,49.0,153.0,188.0,512.55,501.0
860,1555416763.9183784,493.0,488.0,547.0,49.0,153.0,188.0,510.7,499.05
861,1555416763.9980507,506.0,520.0,577.0,49.0,153.0,167.0,509.5,498.5
862,1555416764.0796359,526.0,583.0,556.0,49.0,153.0,164.0,510.2,504.65
863,1555416764.1766498,491.0,468.0,490.0,49.0,153.0,164.0,509.3,504.65
864,1555416764.2671974,485.0,495.0,467.0,53.0,153.0,164.0,508.5,504.0
865,1555416764.3493838,495.0,492.0,529.0,53.0,146.0,164.0,508.2,506.3
866,1555416764.419736,503.0,508.0,497.0,53.0,146.0,164.0,508.4,507.95
867,1555416764.4984908,511.0,536.0,466.0,53.0,146.0,150.0,509.05,510.75
868,1555416764.5852282,523.0,489.0,454.0,53.0,146.0,150.0,508.35,507.3
869,1555416764.6794896,520.0,553.0,434.0,53.0,146.0,159.0,508.45,511.15
870,1555416764.747372,522.0,514.0,407.0,46.0,146.0,186.0,507.65,511.5
871,1555416764.8442643,505.0,546.0,410.0,41.0,146.0,186.0,506.35,510.55
872,1555416764.9281895,497.0,464.0,593.0,41.0,130.0,186.0,505.45,503.8
873,1555416765.0086987,512.0,494.0,611.0,41.0,130.0,204.0,506.6,502.2
874,1555416765.0810568,505.0,490.0,554.0,41.0,130.0,204.0,506.65,501.15
875,1555416765.1558273,517.0,527.0,530.0,41.0,126.0,204.0,507.85,504.85
876,1555416765.251288,502.0,516.0,564.0,41.0,119.0,204.0,508.05,507.8
877,1555416765.3460598,514.0,613.0,560.0,41.0,149.0,204.0,508.7,514.9
878,1555416765.4314232,503.0,631.0,611.0,41.0,167.0,204.0,507.55,522.8
879,1555416765.5017176,527.0,615.0,552.0,42.0,167.0,204.0,507.85,527.1
880,1555416765.5712714,515.0,544.0,505.0,42.0,167.0,204.0,508.95,529.9
881,1555416765.6553757,516.0,493.0,482.0,42.0,167.0,204.0,509.45,528.55
882,1555416765.7387779,514.0,487.0,501.0,42.0,167.0,204.0,508.85,523.75
883,1555416765.814524,496.0,438.0,512.0,42.0,193.0,204.0,509.1,522.25
884,1555416765.8992293,512.0,477.0,513.0,32.0,193.0,204.0,510.45,521.35
885,1555416765.9799857,516.0,510.0,535.0,31.0,193.0,204.0,511.5,522.25
886,1555416766.058423,529.0,541.0,502.0,33.0,193.0,204.0,512.8,523.9
887,1555416766.1295567,506.0,466.0,527.0,33.0,193.0,204.0,512.55,520.4
888,1555416766.210637,508.0,480.0,526.0,33.0,193.0,204.0,511.8,519.95
889,1555416766.2880664,508.0,499.0,492.0,33.0,193.0,204.0,511.2,517.25
890,1555416766.373,516.0,565.0,488.0,33.0,193.0,201.0,510.9,519.8
891,1555416766.46139,510.0,575.0,533.0,33.0,193.0,129.0,511.15,521.25
892,1555416766.5396843,502.0,592.0,572.0,33.0,193.0,129.0,511.4,527.65
893,1555416766.6330798,516.0,503.0,703.0,33.0,193.0,221.0,511.6,528.1
894,1555416766.7109478,543.0,541.0,553.0,47.0,193.0,221.0,513.5,530.65
895,1555416766.7801342,514.0,453.0,440.0,47.0,193.0,263.0,513.35,526.95
896,1555416766.850195,519.0,423.0,411.0,47.0,208.0,292.0,514.2,522.3
897,1555416766.9206612,531.0,462.0,419.0,47.0,208.0,292.0,515.05,514.75
898,1555416766.9931185,540.0,547.0,441.0,47.0,192.0,292.0,516.9,510.55
899,1555416767.0686922,533.0,520.0,501.0,47.0,169.0,292.0,517.2,505.8
900,1555416767.1379187,492.0,501.0,609.0,51.0,169.0,292.0,516.05,503.65
901,1555416767.2249284,499.0,565.0,577.0,51.0,169.0,292.0,515.2,507.25
902,1555416767.2985587,483.0,553.0,473.0,60.0,169.0,292.0,513.65,510.55
903,1555416767.3786218,455.0,570.0,430.0,88.0,169.0,292.0,511.6,517.15
904,1555416767.478719,465.0,608.0,639.0,88.0,185.0,292.0,509.25,523.7
905,1555416767.5582125,457.0,573.0,705.0,88.0,185.0,294.0,506.3,526.85
906,1555416767.6275935,498.0,576.0,637.0,88.0,185.0,294.0,504.75,528.6
907,1555416767.719216,496.0,406.0,488.0,88.0,202.0,294.0,504.25,525.6
908,1555416767.7981508,528.0,401.0,381.0,88.0,207.0,324.0,505.25,521.65
909,1555416767.8768177,566.0,524.0,367.0,111.0,207.0,338.0,508.15,522.9
910,1555416767.9490516,586.0,482.0,337.0,131.0,207.0,368.0,511.65,518.75
911,1555416768.0283494,568.0,550.0,415.0,131.0,207.0,368.0,514.55,517.5
912,1555416768.1104329,548.0,495.0,501.0,131.0,207.0,368.0,516.85,512.65
913,1555416768.1820462,563.0,478.0,507.0,131.0,207.0,368.0,519.2,511.4
914,1555416768.2634954,508.0,524.0,460.0,131.0,207.0,368.0,517.45,510.55
915,1555416768.338184,508.0,524.0,460.0,131.0,207.0,368.0,517.15,514.1
916,1555416768.4130125,509.0,552.0,526.0,131.0,207.0,368.0,516.65,520.55
917,1555416768.4905403,512.0,526.0,676.0,131.0,207.0,368.0,515.7,523.75
918,1555416768.5797405,524.0,464.0,645.0,131.0,207.0,368.0,514.9,519.6
919,1555416768.6690202,520.0,395.0,551.0,131.0,213.0,368.0,514.25,513.35
920,1555416768.7490015,483.0,437.0,463.0,131.0,213.0,368.0,513.8,510.15
921,1555416768.834684,492.0,491.0,385.0,131.0,213.0,368.0,513.45,506.45
922,1555416768.911407,500.0,496.0,401.0,131.0,213.0,368.0,514.3,503.6
923,1555416768.9960034,512.0,506.0,459.0,129.0,213.0,368.0,517.15,500.4
924,1555416769.0932212,434.0,498.0,382.0,152.0,181.0,368.0,515.6,494.9
925,1555416769.1729743,460.0,491.0,505.0,152.0,181.0,339.0,515.75,490.8
926,1555416769.25569,486.0,472.0,482.0,152.0,157.0,339.0,515.15,485.6
927,1555416769.3329792,484.0,445.0,481.0,152.0,157.0,339.0,514.55,487.55
928,1555416769.4108226,487.0,475.0,530.0,152.0,157.0,339.0,512.5,491.25
929,1555416769.489873,506.0,483.0,581.0,152.0,157.0,339.0,509.5,489.2
930,1555416769.5628672,539.0,574.0,630.0,134.0,179.0,294.0,507.15,493.8
931,1555416769.6483788,525.0,544.0,579.0,129.0,179.0,294.0,505.0,493.5
932,1555416769.7425647,515.0,447.0,555.0,129.0,179.0,294.0,503.35,491.1
933,1555416769.8607569,497.0,491.0,553.0,105.0,179.0,294.0,500.05,491.75
934,1555416769.9377923,494.0,468.0,509.0,105.0,179.0,294.0,499.35,488.95
935,1555416770.0168433,477.0,438.0,499.0,105.0,179.0,294.0,497.8,484.65
936,1555416770.0955687,438.0,568.0,437.0,105.0,179.0,294.0,494.25,485.45
937,1555416770.1721306,437.0,506.0,412.0,105.0,179.0,263.0,490.5,484.45
938,1555416770.2563868,540.0,501.0,543.0,106.0,179.0,248.0,491.3,486.3
939,1555416770.3278418,551.0,497.0,589.0,117.0,137.0,248.0,492.85,491.4
940,1555416770.4111934,531.0,478.0,495.0,117.0,136.0,248.0,495.25,493.45
941,1555416770.4816916,510.0,500.0,479.0,117.0,136.0,248.0,496.15,493.9
942,1555416770.557265,534.0,550.0,543.0,117.0,136.0,248.0,497.85,496.6
943,1555416770.652244,509.0,513.0,598.0,117.0,136.0,248.0,497.7,496.95
944,1555416770.748512,494.0,510.0,506.0,114.0,136.0,218.0,500.7,497.55
945,1555416770.829665,534.0,447.0,479.0,114.0,136.0,218.0,504.4,495.35
946,1555416770.9178617,542.0,488.0,493.0,114.0,136.0,218.0,507.2,496.15
947,1555416770.998046,536.0,518.0,368.0,114.0,136.0,262.0,509.8,499.8
948,1555416771.0730155,530.0,488.0,401.0,114.0,136.0,262.0,511.95,500.45
949,1555416771.1471243,484.0,523.0,492.0,114.0,136.0,262.0,510.85,502.45
950,1555416771.2268584,490.0,522.0,454.0,114.0,130.0,230.0,508.4,499.85
951,1555416771.2986689,508.0,494.0,505.0,114.0,130.0,230.0,507.55,497.35
952,1555416771.3874016,503.0,463.0,525.0,114.0,130.0,230.0,506.95,498.15
953,1555416771.4686623,516.0,503.0,489.0,114.0,130.0,230.0,507.9,498.75
954,1555416771.5535684,517.0,490.0,566.0,114.0,130.0,230.0,509.05,499.85
955,1555416771.630894,551.0,585.0,627.0,114.0,138.0,259.0,512.75,507.2
956,1555416771.7203598,497.0,570.0,557.0,114.0,138.0,259.0,515.7,507.3
957,1555416771.799078,493.0,486.0,498.0,67.0,138.0,259.0,518.5,506.3
958,1555416771.8831635,482.0,483.0,480.0,69.0,138.0,259.0,515.6,505.4
959,1555416771.9738152,503.0,444.0,480.0,69.0,141.0,259.0,513.2,502.75
960,1555416772.0511742,520.0,650.0,465.0,69.0,206.0,259.0,512.65,511.35
961,1555416772.12559,501.0,470.0,488.0,69.0,206.0,259.0,512.2,509.85
962,1555416772.1999438,539.0,525.0,518.0,69.0,206.0,259.0,512.45,508.6
963,1555416772.2787826,536.0,507.0,534.0,69.0,206.0,259.0,513.8,508.3
964,1555416772.3563805,537.0,504.0,540.0,69.0,206.0,259.0,515.95,508.0
965,1555416772.4410176,519.0,485.0,569.0,69.0,206.0,259.0,515.2,509.9
966,1555416772.521656,485.0,539.0,515.0,69.0,206.0,259.0,512.35,512.45
967,1555416772.6153996,495.0,574.0,474.0,69.0,206.0,226.0,510.3,515.25
968,1555416772.6850598,457.0,478.0,473.0,94.0,206.0,173.0,506.65,514.75
969,1555416772.7582493,488.0,578.0,472.0,94.0,206.0,173.0,506.85,517.5
970,1555416772.8436718,495.0,491.0,446.0,94.0,206.0,181.0,507.1,515.95
971,1555416772.9235387,500.0,493.0,387.0,94.0,206.0,240.0,506.7,515.9
972,1555416773.0067961,526.0,526.0,404.0,94.0,206.0,240.0,507.85,519.05
973,1555416773.097143,516.0,537.0,433.0,94.0,206.0,240.0,507.85,520.75
974,1555416773.1756139,525.0,520.0,562.0,94.0,206.0,240.0,508.25,522.25
975,1555416773.264989,547.0,575.0,618.0,90.0,206.0,231.0,508.05,521.75
976,1555416773.336007,486.0,452.0,599.0,90.0,206.0,231.0,507.5,515.85
977,1555416773.4087265,489.0,504.0,580.0,90.0,206.0,231.0,507.3,516.75
978,1555416773.5134687,536.0,521.0,591.0,90.0,206.0,231.0,510.0,518.65
979,1555416773.59043,512.0,499.0,516.0,90.0,198.0,231.0,510.45,521.4
980,1555416773.6608407,506.0,591.0,478.0,90.0,139.0,231.0,509.75,518.45
981,1555416773.7303905,507.0,553.0,459.0,90.0,139.0,231.0,510.05,522.6
982,1555416773.826197,530.0,536.0,460.0,90.0,139.0,231.0,509.6,523.15
983,1555416773.9050844,506.0,469.0,469.0,90.0,139.0,231.0,508.1,521.25
984,1555416773.99969,508.0,510.0,476.0,90.0,139.0,231.0,506.65,521.55
985,1555416774.0687568,490.0,489.0,498.0,90.0,139.0,231.0,505.2,521.75
986,1555416774.1397054,494.0,516.0,522.0,90.0,139.0,231.0,505.65,520.6
987,1555416774.2111561,505.0,508.0,566.0,90.0,139.0,231.0,506.15,517.3
988,1555416774.279484,522.0,532.0,553.0,61.0,139.0,231.0,509.4,520.0
989,1555416774.3510242,532.0,499.0,530.0,61.0,139.0,231.0,511.6,516.05
990,1555416774.4358382,506.0,490.0,495.0,61.0,139.0,231.0,512.15,516.0
991,1555416774.516348,525.0,497.0,485.0,61.0,139.0,214.0,513.4,516.2
992,1555416774.5865996,514.0,470.0,505.0,61.0,139.0,185.0,512.8,513.4
993,1555416774.6593997,520.0,518.0,522.0,61.0,139.0,159.0,513.0,512.45
994,1555416774.7299075,514.0,525.0,495.0,61.0,139.0,159.0,512.45,512.7
995,1555416774.8003712,493.0,545.0,471.0,50.0,139.0,140.0,509.75,511.2
996,1555416774.870526,510.0,526.0,467.0,47.0,122.0,132.0,510.95,514.9
997,1555416774.9500656,499.0,541.0,536.0,46.0,122.0,132.0,511.45,516.75
998,1555416775.024726,506.0,509.0,501.0,42.0,122.0,107.0,509.95,516.15
999,1555416775.1062574,506.0,509.0,501.0,42.0,122.0,107.0,509.65,516.65
1000,1555416775.1974537,546.0,1.0,360.0,56.0,552.0,206.0,511.65,487.15
1001,1555416775.2823434,644.0,657.0,479.0,154.0,656.0,206.0,518.5,492.35
1002,1555416775.3566716,411.0,606.0,476.0,233.0,656.0,206.0,512.55,495.85
1003,1555416775.4422925,538.0,1022.0,522.0,233.0,1021.0,206.0,514.15,523.5
1004,1555416775.534916,314.0,206.0,492.0,330.0,1021.0,206.0,504.45,508.3
1005,1555416775.6235116,698.0,764.0,750.0,384.0,1021.0,390.0,514.85,522.05
1006,1555416775.704267,492.0,261.0,415.0,384.0,1021.0,390.0,514.75,509.3
1007,1555416775.7875578,546.0,1.0,360.0,384.0,1021.0,390.0,516.8,483.95
1008,1555416775.8647602,644.0,657.0,479.0,384.0,1021.0,390.0,522.9,490.2
1009,1555416775.9370592,588.0,980.0,257.0,384.0,1021.0,493.0,525.7,514.25
1010,1555416776.0128696,411.0,606.0,476.0,384.0,1021.0,493.0,520.95,520.05
1011,1555416776.089315,538.0,1022.0,522.0,384.0,1021.0,493.0,521.6,546.3
1012,1555416776.1590846,314.0,206.0,492.0,384.0,1021.0,493.0,511.6,533.1
1013,1555416776.2305253,232.0,1022.0,353.0,466.0,1021.0,493.0,497.2,558.3
1014,1555416776.2995605,475.0,785.0,453.0,466.0,1021.0,493.0,495.25,571.3
1015,1555416776.386532,531.0,214.0,568.0,466.0,1021.0,493.0,497.15,554.75
1016,1555416776.4702055,453.0,452.0,491.0,466.0,1021.0,493.0,494.3,551.05
1017,1555416776.5506907,592.0,533.0,348.0,466.0,1021.0,493.0,498.95,550.65
1018,1555416776.6277263,637.0,177.0,335.0,466.0,1021.0,493.0,505.5,534.05
1019,1555416776.718834,207.0,5.0,197.0,491.0,1021.0,553.0,490.55,508.85
1020,1555416776.7952085,378.0,0.0,222.0,491.0,1022.0,553.0,482.15,508.8
1021,1555416776.8681672,547.0,188.0,231.0,491.0,1022.0,553.0,477.3,485.35
1022,1555416776.9401603,528.0,365.0,345.0,491.0,1022.0,553.0,483.15,473.3
1023,1555416777.0119092,515.0,568.0,383.0,491.0,1022.0,553.0,482.0,450.6
1024,1555416777.093663,521.0,245.0,429.0,491.0,1022.0,553.0,492.35,452.55
1025,1555416777.1728902,506.0,151.0,329.0,437.0,1022.0,371.0,482.75,421.9
1026,1555416777.265749,481.0,464.0,277.0,437.0,1022.0,371.0,482.2,432.05
1027,1555416777.367524,484.0,821.0,305.0,437.0,1022.0,371.0,479.1,473.05
1028,1555416777.4436057,540.0,701.0,524.0,430.0,1022.0,371.0,473.9,475.25
1029,1555416777.5166461,584.0,553.0,657.0,430.0,1022.0,460.0,473.7,453.9
1030,1555416777.595644,555.0,544.0,658.0,430.0,1022.0,461.0,480.9,450.8
1031,1555416777.673019,572.0,723.0,667.0,430.0,1022.0,470.0,482.6,435.85
1032,1555416777.758598,495.0,676.0,632.0,430.0,1022.0,470.0,491.65,459.35
1033,1555416777.84908,555.0,776.0,537.0,430.0,821.0,470.0,507.8,447.05
1034,1555416777.9319472,517.0,750.0,587.0,430.0,821.0,470.0,509.9,445.3
1035,1555416778.0210264,494.0,601.0,483.0,430.0,821.0,470.0,508.05,464.65
1036,1555416778.0922909,486.0,652.0,483.0,430.0,821.0,470.0,509.7,474.65
1037,1555416778.1645563,498.0,534.0,453.0,430.0,821.0,470.0,505.0,474.7
1038,1555416778.2441075,540.0,561.0,413.0,377.0,821.0,470.0,500.15,493.9
1039,1555416778.3317385,527.0,563.0,416.0,206.0,821.0,445.0,516.15,521.8
1040,1555416778.4105408,493.0,574.0,426.0,103.0,670.0,436.0,521.9,550.5
1041,1555416778.4914212,460.0,536.0,520.0,124.0,670.0,390.0,517.55,567.9
1042,1555416778.5722785,493.0,568.0,587.0,124.0,670.0,390.0,515.8,578.05
1043,1555416778.6415257,506.0,529.0,555.0,124.0,670.0,390.0,515.35,576.1
1044,1555416778.716136,503.0,546.0,530.0,124.0,670.0,390.0,514.45,591.15
1045,1555416778.8119483,547.0,621.0,497.0,124.0,357.0,390.0,516.5,614.65
1046,1555416778.8866212,511.0,505.0,446.0,124.0,316.0,362.0,518.0,616.7
1047,1555416778.9635746,521.0,588.0,443.0,124.0,271.0,254.0,519.85,605.05
1048,1555416779.0400994,500.0,580.0,495.0,124.0,271.0,254.0,517.85,599.0
1049,1555416779.1105769,487.0,503.0,501.0,112.0,273.0,254.0,513.0,596.5
1050,1555416779.2066128,502.0,559.0,481.0,112.0,273.0,254.0,510.35,597.25
1051,1555416779.289365,501.0,526.0,482.0,95.0,273.0,219.0,506.8,587.4
1052,1555416779.3726184,498.0,493.0,514.0,95.0,283.0,174.0,506.95,578.25
1053,1555416779.4492948,516.0,493.0,511.0,87.0,257.0,174.0,505.0,564.1
1054,1555416779.5253096,498.0,494.0,512.0,87.0,159.0,174.0,504.05,551.3
1055,1555416779.6015897,516.0,503.0,498.0,87.0,159.0,174.0,505.15,546.4
1056,1555416779.6782322,492.0,514.0,513.0,87.0,128.0,174.0,505.45,539.5
1057,1555416779.760759,490.0,476.0,475.0,87.0,145.0,174.0,505.05,536.6
1058,1555416779.8529496,503.0,472.0,538.0,87.0,149.0,171.0,503.2,532.15
1059,1555416779.92952,513.0,500.0,574.0,87.0,149.0,161.0,502.5,529.0
1060,1555416780.0106,496.0,503.0,539.0,87.0,149.0,144.0,502.65,525.45
1061,1555416780.1041572,504.0,500.0,534.0,60.0,149.0,144.0,504.85,523.65
1062,1555416780.182383,510.0,541.0,526.0,60.0,149.0,131.0,505.7,522.3
1063,1555416780.268981,508.0,515.0,522.0,60.0,149.0,131.0,505.8,521.6
1064,1555416780.355902,493.0,489.0,511.0,60.0,149.0,131.0,505.3,518.75
1065,1555416780.4343412,507.0,527.0,533.0,34.0,116.0,131.0,503.3,514.05
1066,1555416780.5132754,515.0,505.0,532.0,34.0,116.0,131.0,503.5,514.05
1067,1555416780.5965714,497.0,460.0,538.0,29.0,120.0,99.0,502.3,507.65
1068,1555416780.6892972,501.0,503.0,535.0,29.0,99.0,99.0,502.35,503.8
1069,1555416780.7722547,505.0,494.0,488.0,26.0,99.0,99.0,503.25,503.35
1070,1555416780.861062,509.0,459.0,486.0,26.0,82.0,99.0,503.6,498.35
1071,1555416780.9393933,507.0,488.0,490.0,26.0,82.0,99.0,503.9,496.45
1072,1555416781.0215945,509.0,527.0,483.0,26.0,82.0,99.0,504.45,498.15
1073,1555416781.1074936,520.0,506.0,448.0,30.0,82.0,126.0,504.65,498.8
1074,1555416781.1892593,513.0,530.0,344.0,30.0,82.0,230.0,505.4,500.6
1075,1555416781.2655525,496.0,524.0,321.0,30.0,82.0,253.0,504.4,501.65
1076,1555416781.3446794,502.0,482.0,336.0,30.0,82.0,253.0,504.9,500.05
1077,1555416781.4252107,524.0,525.0,403.0,31.0,82.0,253.0,506.6,502.5
1078,1555416781.520682,497.0,556.0,422.0,31.0,97.0,253.0,506.3,506.7
1079,1555416781.6063402,510.0,543.0,475.0,31.0,97.0,218.0,506.15,508.85
1080,1555416781.68283,523.0,543.0,497.0,31.0,97.0,217.0,507.5,510.85
1081,1555416781.7698307,504.0,471.0,499.0,31.0,97.0,217.0,507.5,509.4
1082,1555416781.8502595,508.0,469.0,524.0,31.0,97.0,217.0,507.4,505.8
1083,1555416781.9319968,504.0,500.0,519.0,31.0,97.0,217.0,507.2,505.05
1084,1555416782.0143058,509.0,506.0,502.0,28.0,97.0,217.0,508.0,505.9
1085,1555416782.1043599,510.0,496.0,572.0,28.0,97.0,251.0,508.15,504.35
1086,1555416782.1724217,513.0,500.0,609.0,28.0,97.0,288.0,508.05,504.1
1087,1555416782.2404358,501.0,481.0,628.0,28.0,97.0,307.0,508.25,505.15
1088,1555416782.312677,520.0,507.0,659.0,28.0,97.0,338.0,509.2,505.35
1089,1555416782.3838995,511.0,439.0,632.0,28.0,117.0,338.0,509.5,502.6
1090,1555416782.4530957,511.0,475.0,624.0,28.0,117.0,338.0,509.6,503.4
1091,1555416782.5247984,509.0,514.0,597.0,28.0,117.0,338.0,509.7,504.7
1092,1555416782.5982158,525.0,549.0,574.0,29.0,117.0,338.0,510.5,505.8
1093,1555416782.6872816,502.0,456.0,519.0,29.0,117.0,338.0,509.6,503.3
1094,1555416782.7645116,505.0,564.0,486.0,29.0,125.0,338.0,509.2,505.0
1095,1555416782.8401437,511.0,511.0,488.0,28.0,125.0,323.0,509.95,504.35
1096,1555416782.917306,506.0,508.0,487.0,28.0,125.0,256.0,510.15,505.65
1097,1555416782.9936147,512.0,494.0,481.0,28.0,125.0,237.0,509.55,504.1
1098,1555416783.0656552,507.0,513.0,485.0,24.0,125.0,184.0,510.05,501.95
1099,1555416783.1408439,503.0,518.0,495.0,24.0,125.0,178.0,509.7,500.7
1100,1555416783.2357564,499.0,480.0,517.0,26.0,125.0,178.0,508.5,497.55
1101,1555416783.311674,509.0,537.0,530.0,26.0,125.0,178.0,508.75,500.85
1102,1555416783.3877077,514.0,579.0,543.0,26.0,140.0,178.0,509.05,506.35
1103,1555416783.4817107,504.0,517.0,529.0,26.0,140.0,178.0,509.05,507.2
1104,1555416783.5589082,505.0,499.0,529.0,26.0,140.0,178.0,508.85,506.85
1105,1555416783.631087,515.0,504.0,532.0,26.0,140.0,178.0,509.1,507.25
1106,1555416783.7075334,504.0,479.0,520.0,26.0,140.0,178.0,508.65,506.2
1107,1555416783.7961817,507.0,534.0,538.0,26.0,140.0,178.0,508.95,508.85
1108,1555416783.8867834,520.0,506.0,528.0,26.0,140.0,151.0,508.95,508.8
1109,1555416783.957284,500.0,473.0,531.0,26.0,123.0,143.0,508.4,510.5
1110,1555416784.028821,501.0,489.0,544.0,26.0,123.0,116.0,507.9,511.2
1111,1555416784.0972817,503.0,516.0,548.0,26.0,123.0,93.0,507.6,511.3
1112,1555416784.166213,501.0,501.0,540.0,21.0,123.0,67.0,506.4,508.9
1113,1555416784.238787,522.0,505.0,536.0,23.0,106.0,67.0,507.4,511.35
1114,1555416784.321956,508.0,541.0,520.0,23.0,106.0,67.0,507.55,510.2
1115,1555416784.399896,512.0,530.0,530.0,23.0,106.0,67.0,507.6,511.15
1116,1555416784.4720292,511.0,521.0,529.0,23.0,106.0,67.0,507.85,511.8
1117,1555416784.5616338,520.0,531.0,516.0,23.0,106.0,63.0,508.25,513.65
1118,1555416784.635632,494.0,502.0,507.0,28.0,106.0,53.0,507.6,513.1
1119,1555416784.723067,498.0,527.0,490.0,28.0,106.0,58.0,507.35,513.55
1120,1555416784.801084,500.0,503.0,505.0,28.0,106.0,58.0,507.4,514.7
1121,1555416784.878913,520.0,542.0,512.0,28.0,106.0,58.0,507.95,514.95
1122,1555416784.9515429,509.0,517.0,514.0,28.0,69.0,58.0,507.7,511.85
1123,1555416785.0225122,505.0,533.0,511.0,28.0,69.0,58.0,507.75,512.65
1124,1555416785.0915246,493.0,479.0,527.0,29.0,69.0,58.0,507.15,511.65
1125,1555416785.18475,511.0,484.0,515.0,29.0,69.0,58.0,506.95,510.65
1126,1555416785.2591014,500.0,505.0,515.0,29.0,69.0,58.0,506.75,511.95
1127,1555416785.3371432,513.0,503.0,495.0,29.0,69.0,58.0,507.05,510.4
1128,1555416785.4186428,534.0,593.0,495.0,41.0,120.0,58.0,507.75,514.75
1129,1555416785.4908645,515.0,467.0,491.0,41.0,126.0,58.0,508.5,514.45
1130,1555416785.5699873,510.0,463.0,485.0,41.0,130.0,63.0,508.95,513.15
1131,1555416785.6464918,501.0,490.0,493.0,41.0,130.0,55.0,508.85,511.85
1132,1555416785.7336931,504.0,517.0,487.0,41.0,130.0,51.0,509.0,512.65
1133,1555416785.827786,502.0,508.0,483.0,41.0,130.0,47.0,508.0,512.8
1134,1555416785.9272907,530.0,525.0,479.0,41.0,130.0,51.0,509.1,512.0
1135,1555416786.0129547,503.0,509.0,476.0,41.0,130.0,53.0,508.65,510.95
