,unixtime,emg0,emg1,emg0_ampl,emg1_ampl,emg0_med,emg1_med
0,1555414683.0245662,503.0,491.0,63.0,156.0,508.05,500.7
1,1555414683.0952392,518.0,490.0,63.0,156.0,508.55,502.05
2,1555414683.155961,521.0,507.0,63.0,156.0,509.6,504.3
3,1555414683.218827,513.0,446.0,63.0,154.0,510.6,504.45
4,1555414683.28206,499.0,451.0,58.0,154.0,507.9,498.65
5,1555414683.3436122,496.0,495.0,58.0,154.0,508.1,499.55
6,1555414683.4057646,486.0,451.0,62.0,154.0,507.05,494.1
7,1555414683.4684584,497.0,446.0,62.0,154.0,506.5,492.05
8,1555414683.533095,512.0,516.0,62.0,154.0,506.55,495.1
9,1555414683.5972712,540.0,640.0,62.0,195.0,507.85,502.75
10,1555414683.6717637,502.0,513.0,62.0,195.0,507.65,501.2
11,1555414683.7491777,502.0,452.0,62.0,195.0,507.3,498.35
12,1555414683.8118565,509.0,436.0,62.0,204.0,507.35,495.25
13,1555414683.876368,490.0,538.0,62.0,204.0,507.15,498.55
14,1555414683.9417157,525.0,552.0,62.0,204.0,507.85,501.3
15,1555414684.013643,497.0,468.0,62.0,204.0,507.85,500.0
16,1555414684.0853302,508.0,538.0,62.0,204.0,508.05,500.4
17,1555414684.150666,510.0,548.0,62.0,204.0,509.05,505.55
18,1555414684.2159758,516.0,498.0,62.0,204.0,509.6,503.75
19,1555414684.2819426,521.0,520.0,54.0,204.0,508.25,499.8
20,1555414684.3494506,506.0,516.0,54.0,204.0,508.4,501.05
21,1555414684.4134586,494.0,522.0,54.0,204.0,507.2,502.65
22,1555414684.4796278,545.0,542.0,59.0,204.0,508.4,504.4
23,1555414684.5450444,502.0,523.0,59.0,204.0,507.85,508.25
24,1555414684.6194513,482.0,430.0,63.0,210.0,507.0,507.2
25,1555414684.690761,508.0,482.0,63.0,210.0,507.6,506.55
26,1555414684.756825,511.0,522.0,63.0,210.0,508.85,510.1
27,1555414684.8282645,509.0,494.0,63.0,210.0,509.45,512.5
28,1555414684.8949218,509.0,505.0,63.0,210.0,509.3,511.95
29,1555414684.9648964,469.0,435.0,76.0,122.0,505.75,501.7
30,1555414685.02781,492.0,421.0,76.0,131.0,505.25,497.1
31,1555414685.0954454,509.0,529.0,76.0,131.0,505.6,500.95
32,1555414685.164672,503.0,541.0,76.0,131.0,505.3,506.2
33,1555414685.2310073,499.0,480.0,76.0,131.0,505.75,503.3
34,1555414685.294176,533.0,564.0,76.0,143.0,506.15,503.9
35,1555414685.3656116,519.0,565.0,76.0,144.0,507.25,508.75
36,1555414685.4346185,513.0,570.0,76.0,149.0,507.5,510.35
37,1555414685.5000608,487.0,538.0,76.0,149.0,506.35,509.85
38,1555414685.5641005,532.0,512.0,76.0,149.0,507.15,510.55
39,1555414685.6357963,505.0,488.0,76.0,149.0,506.35,508.95
40,1555414685.7101161,506.0,467.0,76.0,149.0,506.35,506.5
41,1555414685.7869573,548.0,500.0,79.0,149.0,509.05,505.4
42,1555414685.86387,522.0,532.0,79.0,149.0,507.9,504.9
43,1555414685.9348674,517.0,552.0,79.0,149.0,508.65,506.35
44,1555414686.007156,519.0,539.0,79.0,149.0,510.5,511.8
45,1555414686.0883286,499.0,504.0,79.0,149.0,510.05,512.9
46,1555414686.1653302,503.0,480.0,79.0,149.0,509.65,510.8
47,1555414686.2296143,563.0,581.0,94.0,160.0,512.35,515.15
48,1555414686.2940433,500.0,476.0,94.0,160.0,511.9,513.7
49,1555414686.3616817,519.0,440.0,76.0,160.0,514.4,513.95
50,1555414686.4325905,504.0,471.0,76.0,141.0,515.0,516.45
51,1555414686.506606,565.0,588.0,78.0,148.0,517.8,519.4
52,1555414686.5717468,510.0,520.0,78.0,148.0,518.15,518.35
53,1555414686.640948,501.0,503.0,78.0,148.0,518.25,519.5
54,1555414686.7097144,471.0,496.0,94.0,148.0,515.15,516.1
55,1555414686.780472,485.0,567.0,94.0,148.0,513.45,516.2
56,1555414686.862755,454.0,494.0,111.0,148.0,510.5,512.4
57,1555414686.9329686,468.0,549.0,111.0,148.0,509.55,512.95
58,1555414687.005372,477.0,503.0,111.0,148.0,506.8,512.5
59,1555414687.0828812,470.0,485.0,111.0,148.0,505.05,512.35
60,1555414687.1650722,493.0,522.0,111.0,148.0,504.4,515.1
61,1555414687.2446032,497.0,427.0,111.0,161.0,501.85,511.45
62,1555414687.3219929,496.0,449.0,111.0,161.0,500.55,507.3
63,1555414687.3912632,525.0,443.0,111.0,161.0,500.95,501.85
64,1555414687.4687054,476.0,475.0,111.0,161.0,498.8,498.65
65,1555414687.5557938,514.0,481.0,111.0,161.0,499.55,497.5
66,1555414687.6314898,515.0,498.0,111.0,161.0,500.15,498.4
67,1555414687.7162826,507.0,431.0,111.0,161.0,497.35,490.9
68,1555414687.796017,505.0,427.0,111.0,161.0,497.6,488.45
69,1555414687.878252,520.0,463.0,111.0,161.0,497.65,489.6
70,1555414687.944977,514.0,517.0,111.0,161.0,498.15,491.9
71,1555414688.0177338,521.0,467.0,71.0,140.0,495.95,485.85
72,1555414688.0967832,522.0,408.0,71.0,159.0,496.55,480.25
73,1555414688.183883,531.0,526.0,77.0,159.0,498.05,481.4
74,1555414688.2563765,528.0,524.0,77.0,159.0,500.9,482.8
75,1555414688.323384,512.0,501.0,77.0,141.0,502.25,479.5
76,1555414688.390464,513.0,467.0,63.0,141.0,505.2,478.15
77,1555414688.4617655,555.0,508.0,85.0,118.0,509.55,476.1
78,1555414688.5466304,525.0,508.0,85.0,118.0,511.95,476.35
79,1555414688.613722,544.0,513.0,79.0,118.0,515.65,477.75
80,1555414688.683087,524.0,517.0,79.0,118.0,517.2,477.5
81,1555414688.7612498,533.0,527.0,79.0,119.0,519.0,482.5
82,1555414688.8292131,508.0,515.0,79.0,119.0,519.6,485.8
83,1555414688.8997843,534.0,522.0,79.0,119.0,520.05,489.75
84,1555414688.9860303,525.0,595.0,50.0,187.0,522.5,495.75
85,1555414689.05587,529.0,556.0,50.0,187.0,523.25,499.5
86,1555414689.1353278,527.0,548.0,50.0,187.0,523.85,502.0
87,1555414689.2134461,536.0,509.0,50.0,187.0,525.3,505.9
88,1555414689.2865274,544.0,567.0,47.0,187.0,527.25,512.9
89,1555414689.354455,537.0,517.0,47.0,187.0,528.1,515.6
90,1555414689.422432,515.0,535.0,47.0,187.0,528.15,516.5
91,1555414689.4970448,513.0,569.0,47.0,187.0,527.75,521.6
92,1555414689.5639725,490.0,493.0,65.0,128.0,526.15,525.85
93,1555414689.640715,503.0,464.0,65.0,131.0,524.75,522.75
94,1555414689.715652,483.0,485.0,72.0,131.0,522.5,520.8
95,1555414689.7866166,489.0,481.0,72.0,131.0,521.35,519.8
96,1555414689.8763819,482.0,506.0,73.0,131.0,519.8,521.75
97,1555414689.9443617,469.0,529.0,75.0,131.0,515.5,522.8
98,1555414690.011375,471.0,503.0,75.0,131.0,512.8,522.55
99,1555414690.0808773,480.0,677.0,75.0,213.0,509.6,530.75
100,1555414690.1533272,467.0,578.0,77.0,213.0,506.75,533.8
101,1555414690.2314658,459.0,568.0,85.0,213.0,503.05,535.85
102,1555414690.3142416,492.0,601.0,85.0,213.0,502.25,540.15
103,1555414690.3866482,478.0,499.0,85.0,213.0,499.45,539.0
104,1555414690.4641278,494.0,553.0,85.0,213.0,497.9,536.9
105,1555414690.5415316,520.0,585.0,85.0,213.0,497.45,538.35
106,1555414690.6091185,512.0,523.0,85.0,213.0,496.7,537.1
107,1555414690.690153,528.0,537.0,85.0,213.0,496.3,538.5
108,1555414690.777423,499.0,460.0,78.0,217.0,494.05,533.15
109,1555414690.853184,487.0,515.0,69.0,217.0,491.55,533.05
110,1555414690.9354804,495.0,441.0,69.0,236.0,490.55,528.35
111,1555414691.0172524,520.0,532.0,69.0,236.0,490.9,526.5
112,1555414691.0914955,521.0,496.0,69.0,236.0,492.45,526.65
113,1555414691.1675544,512.0,509.0,69.0,236.0,492.9,528.9
114,1555414691.2429476,520.0,527.0,69.0,236.0,494.75,531.0
115,1555414691.3142104,508.0,455.0,69.0,236.0,495.7,529.7
116,1555414691.3840382,515.0,529.0,69.0,236.0,497.35,530.85
117,1555414691.4561238,521.0,471.0,69.0,236.0,499.95,527.95
118,1555414691.5318315,526.0,552.0,69.0,236.0,502.7,530.4
119,1555414691.6098456,502.0,446.0,69.0,160.0,503.8,518.85
120,1555414691.6851335,504.0,502.0,69.0,160.0,505.65,515.05
121,1555414691.7598343,508.0,493.0,50.0,160.0,508.1,511.3
122,1555414691.8347116,502.0,503.0,50.0,144.0,508.6,506.4
123,1555414691.911476,514.0,456.0,41.0,144.0,510.4,504.25
124,1555414691.9851003,520.0,502.0,41.0,144.0,511.7,501.7
125,1555414692.0596964,509.0,492.0,41.0,111.0,511.15,497.05
126,1555414692.1383793,566.0,600.0,79.0,159.0,513.85,500.9
127,1555414692.2176187,507.0,442.0,79.0,159.0,512.8,496.15
128,1555414692.318664,509.0,494.0,79.0,159.0,513.3,497.85
129,1555414692.3990932,522.0,493.0,71.0,159.0,515.05,496.75
130,1555414692.4781582,503.0,460.0,64.0,158.0,515.45,497.7
131,1555414692.5575123,511.0,467.0,64.0,158.0,515.0,494.45
132,1555414692.6506321,491.0,525.0,75.0,158.0,513.5,495.9
133,1555414692.7284634,495.0,437.0,75.0,163.0,512.65,492.3
134,1555414692.8054488,506.0,487.0,75.0,163.0,511.95,490.3
135,1555414692.8795805,509.0,558.0,75.0,163.0,512.0,495.45
136,1555414692.9545577,489.0,517.0,77.0,163.0,510.7,494.85
137,1555414693.0300667,508.0,497.0,77.0,163.0,510.05,496.15
138,1555414693.0978873,499.0,487.0,77.0,163.0,508.7,492.9
139,1555414693.1671605,517.0,554.0,77.0,163.0,509.45,498.3
140,1555414693.2347598,506.0,454.0,77.0,163.0,509.55,495.9
141,1555414693.3049262,494.0,514.0,77.0,163.0,508.85,496.95
142,1555414693.3877215,516.0,505.0,77.0,163.0,509.55,497.05
143,1555414693.4784346,503.0,468.0,77.0,163.0,509.0,497.65
144,1555414693.5486255,516.0,537.0,77.0,163.0,508.8,499.4
145,1555414693.6211607,518.0,526.0,77.0,163.0,509.25,501.1
146,1555414693.6921942,517.0,470.0,33.0,121.0,506.8,494.6
147,1555414693.775827,512.0,536.0,33.0,121.0,507.05,499.3
148,1555414693.8542304,503.0,466.0,33.0,121.0,506.75,497.9
149,1555414693.9296758,508.0,505.0,29.0,121.0,506.05,498.5
150,1555414694.009751,495.0,472.0,29.0,121.0,505.65,499.1
151,1555414694.094327,509.0,480.0,29.0,121.0,505.55,499.75
152,1555414694.1771436,520.0,496.0,31.0,121.0,507.0,498.3
153,1555414694.2646067,503.0,485.0,31.0,104.0,507.4,500.7
154,1555414694.3483164,492.0,490.0,31.0,104.0,506.7,500.85
155,1555414694.434873,494.0,488.0,31.0,100.0,505.95,497.35
156,1555414694.5093944,498.0,497.0,28.0,100.0,506.4,496.35
157,1555414694.5887153,524.0,515.0,32.0,100.0,507.2,497.25
158,1555414694.671739,510.0,555.0,32.0,101.0,507.75,500.65
159,1555414694.7437155,481.0,475.0,43.0,101.0,505.95,496.7
160,1555414694.8187368,511.0,537.0,43.0,89.0,506.2,500.85
161,1555414694.8958497,512.0,527.0,43.0,89.0,507.1,501.5
162,1555414694.975846,524.0,632.0,43.0,166.0,507.5,507.85
163,1555414695.0451443,507.0,482.0,43.0,166.0,507.7,508.55
164,1555414695.1112573,508.0,517.0,43.0,166.0,507.3,507.55
165,1555414695.1790612,542.0,585.0,61.0,166.0,508.5,510.5
166,1555414695.2446299,516.0,587.0,61.0,166.0,508.45,516.35
167,1555414695.3116322,480.0,421.0,62.0,211.0,506.85,510.6
168,1555414695.3891947,519.0,513.0,62.0,211.0,507.65,512.95
169,1555414695.4602578,491.0,493.0,62.0,211.0,506.8,512.35
170,1555414695.5311189,519.0,535.0,62.0,211.0,508.0,515.5
171,1555414695.5974085,514.0,448.0,62.0,211.0,508.25,513.9
172,1555414695.6643758,524.0,533.0,62.0,211.0,508.45,515.75
173,1555414695.7335768,523.0,513.0,62.0,211.0,509.45,517.15
174,1555414695.803422,529.0,540.0,62.0,211.0,511.3,519.65
175,1555414695.8788843,489.0,456.0,62.0,211.0,511.05,518.05
176,1555414695.955057,499.0,503.0,62.0,211.0,511.1,518.35
177,1555414696.0307572,524.0,490.0,62.0,211.0,511.1,517.1
178,1555414696.1124856,534.0,542.0,62.0,211.0,512.3,516.45
179,1555414696.186736,514.0,492.0,62.0,211.0,513.95,517.3
180,1555414696.2554018,525.0,439.0,62.0,211.0,514.65,512.4
181,1555414696.3427966,523.0,510.0,62.0,211.0,515.2,511.55
182,1555414696.4116206,503.0,403.0,62.0,184.0,514.15,500.1
183,1555414696.4800684,507.0,464.0,62.0,184.0,514.15,499.2
184,1555414696.5532436,511.0,460.0,62.0,184.0,514.3,496.35
185,1555414696.626051,516.0,490.0,54.0,184.0,513.0,491.6
186,1555414696.7022717,495.0,485.0,54.0,139.0,511.95,486.5
187,1555414696.7805152,506.0,497.0,45.0,139.0,513.25,490.3
188,1555414696.8517585,510.0,546.0,45.0,143.0,512.8,491.95
189,1555414696.9214175,508.0,508.0,45.0,143.0,513.65,492.7
190,1555414696.9927719,524.0,548.0,45.0,145.0,513.9,493.35
191,1555414697.0635138,508.0,504.0,45.0,145.0,513.6,496.15
192,1555414697.13847,512.0,437.0,45.0,145.0,513.0,491.35
193,1555414697.2134607,531.0,478.0,45.0,145.0,513.4,489.6
194,1555414697.2858891,517.0,488.0,45.0,145.0,512.8,487.0
195,1555414697.3760295,515.0,477.0,39.0,145.0,514.1,488.05
196,1555414697.457613,511.0,409.0,39.0,145.0,514.7,483.35
197,1555414697.5353134,526.0,514.0,39.0,145.0,514.8,484.55
198,1555414697.607387,518.0,547.0,36.0,145.0,514.0,484.8
199,1555414697.6727982,509.0,514.0,36.0,145.0,513.75,485.9
200,1555414697.7423868,486.0,490.0,45.0,145.0,511.8,488.45
201,1555414697.8221242,509.0,509.0,45.0,145.0,511.1,488.4
202,1555414697.9004385,513.0,462.0,45.0,139.0,511.6,491.35
203,1555414697.9724014,519.0,533.0,45.0,139.0,512.2,494.8
204,1555414698.0600812,540.0,600.0,54.0,191.0,513.65,501.8
205,1555414698.1416912,508.0,511.0,54.0,191.0,513.25,502.85
206,1555414698.2192898,526.0,544.0,54.0,191.0,514.8,505.8
207,1555414698.2956438,516.0,478.0,54.0,191.0,515.3,504.85
208,1555414698.3716688,516.0,478.0,54.0,191.0,515.6,501.45
209,1555414698.4471066,473.0,462.0,67.0,191.0,513.85,499.15
210,1555414698.521964,512.0,499.0,67.0,191.0,513.25,496.7
211,1555414698.6008065,549.0,742.0,76.0,333.0,515.3,508.6
212,1555414698.6792133,533.0,574.0,76.0,333.0,516.35,515.45
213,1555414698.757003,489.0,498.0,76.0,333.0,514.25,516.45
214,1555414698.8308926,514.0,527.0,76.0,333.0,514.1,518.4
215,1555414698.9169195,520.0,564.0,76.0,333.0,514.35,522.75
216,1555414698.9834783,520.0,564.0,76.0,280.0,514.8,530.5
217,1555414699.0494025,473.0,462.0,76.0,280.0,512.15,527.9
218,1555414699.1241019,512.0,499.0,76.0,280.0,511.85,525.5
219,1555414699.1956284,549.0,742.0,76.0,280.0,513.85,536.9
220,1555414699.2653913,533.0,574.0,76.0,280.0,516.2,541.1
221,1555414699.3366034,530.0,538.0,76.0,280.0,517.25,542.55
222,1555414699.4260724,514.0,527.0,76.0,280.0,517.3,545.8
223,1555414699.4998758,520.0,564.0,76.0,280.0,517.35,547.35
224,1555414699.5723019,494.0,506.0,76.0,280.0,515.05,542.65
225,1555414699.6431096,492.0,450.0,76.0,292.0,514.25,539.6
226,1555414699.7144663,520.0,443.0,76.0,299.0,513.95,534.55
227,1555414699.789773,480.0,497.0,76.0,299.0,512.15,535.5
228,1555414699.857954,562.0,686.0,89.0,299.0,514.45,545.9
229,1555414699.9286327,494.0,466.0,89.0,299.0,515.5,546.1
230,1555414699.9997458,482.0,493.0,89.0,299.0,514.0,545.8
231,1555414700.0702426,461.0,386.0,101.0,356.0,509.6,528.0
232,1555414700.1393533,477.0,451.0,101.0,356.0,506.8,521.85
233,1555414700.210928,503.0,417.0,101.0,356.0,507.5,517.8
234,1555414700.2840931,516.0,457.0,101.0,356.0,507.6,514.3
235,1555414700.3514044,550.0,434.0,101.0,356.0,509.1,507.8
236,1555414700.4280462,484.0,391.0,101.0,356.0,507.3,499.15
237,1555414700.516011,485.0,588.0,101.0,356.0,507.9,505.45
238,1555414700.5925343,458.0,558.0,104.0,356.0,505.2,508.4
239,1555414700.6775498,490.0,546.0,104.0,300.0,502.25,498.6
240,1555414700.7468162,487.0,506.0,104.0,300.0,499.95,495.2
241,1555414700.8267293,537.0,478.0,104.0,300.0,500.3,492.2
242,1555414700.9027538,495.0,397.0,104.0,300.0,499.35,485.7
243,1555414700.9709477,537.0,560.0,104.0,300.0,500.2,485.5
244,1555414701.0506058,499.0,460.0,104.0,300.0,500.45,483.2
245,1555414701.1352584,494.0,526.0,104.0,300.0,500.55,487.0
246,1555414701.2050679,520.0,501.0,104.0,300.0,500.55,489.9
247,1555414701.2851708,513.0,582.0,104.0,300.0,502.2,494.15
248,1555414701.3603537,507.0,497.0,92.0,202.0,499.45,484.7
249,1555414701.4396029,511.0,473.0,92.0,202.0,500.3,485.05
250,1555414701.5093634,493.0,448.0,92.0,202.0,500.85,482.8
251,1555414701.5963767,509.0,546.0,92.0,197.0,503.25,490.8
252,1555414701.6681445,527.0,443.0,92.0,197.0,505.75,490.4
253,1555414701.7413275,533.0,513.0,92.0,197.0,507.25,495.2
254,1555414701.8179548,501.0,438.0,92.0,197.0,506.5,494.25
255,1555414701.908631,518.0,559.0,79.0,197.0,504.9,500.5
256,1555414701.994705,509.0,519.0,79.0,191.0,506.15,506.9
257,1555414702.0821333,502.0,475.0,79.0,185.0,507.0,501.25
258,1555414702.1624987,509.0,498.0,50.0,185.0,509.55,498.25
259,1555414702.2361293,520.0,459.0,50.0,185.0,511.05,493.9
260,1555414702.3114493,486.0,518.0,51.0,185.0,511.0,494.5
261,1555414702.3847172,491.0,558.0,51.0,185.0,508.7,498.5
262,1555414702.4614491,492.0,488.0,51.0,144.0,508.55,503.05
263,1555414702.5464735,536.0,536.0,50.0,144.0,508.5,501.85
264,1555414702.6150758,514.0,499.0,50.0,144.0,509.25,503.8
265,1555414702.7013023,501.0,445.0,50.0,144.0,509.6,499.75
266,1555414702.7793732,515.0,511.0,50.0,144.0,509.35,500.25
267,1555414702.8612864,516.0,398.0,50.0,161.0,509.5,491.05
268,1555414702.9444816,527.0,430.0,50.0,161.0,510.5,487.7
269,1555414703.028897,539.0,435.0,53.0,161.0,511.9,485.8
270,1555414703.1099834,493.0,431.0,53.0,161.0,511.9,484.95
271,1555414703.1831188,487.0,431.0,53.0,161.0,510.8,479.2
272,1555414703.2551851,548.0,502.0,62.0,161.0,511.85,482.15
273,1555414703.3530986,491.0,433.0,62.0,161.0,509.75,478.15
274,1555414703.4208715,517.0,507.0,62.0,161.0,510.55,481.6
275,1555414703.4945,491.0,468.0,62.0,160.0,509.2,477.05
276,1555414703.568958,497.0,509.0,62.0,160.0,508.6,476.55
277,1555414703.6386678,562.0,581.0,76.0,183.0,511.6,481.85
278,1555414703.7089047,513.0,492.0,76.0,183.0,511.8,481.55
279,1555414703.7809029,469.0,446.0,93.0,183.0,509.25,480.9
280,1555414703.8642986,534.0,544.0,93.0,183.0,511.65,482.2
281,1555414703.940034,531.0,507.0,93.0,183.0,513.65,479.65
282,1555414704.015286,465.0,540.0,97.0,183.0,512.3,482.25
283,1555414704.094666,519.0,626.0,97.0,228.0,511.45,486.75
284,1555414704.1791856,514.0,449.0,97.0,228.0,511.45,484.25
285,1555414704.2505577,467.0,484.0,97.0,228.0,509.75,486.2
286,1555414704.3264008,545.0,533.0,97.0,228.0,511.25,487.3
287,1555414704.400131,530.0,551.0,97.0,196.0,511.95,494.95
288,1555414704.4853694,496.0,406.0,97.0,220.0,510.4,493.75
289,1555414704.5675933,478.0,435.0,97.0,220.0,507.35,493.75
290,1555414704.6448324,518.0,492.0,97.0,220.0,508.6,496.8
291,1555414704.7213407,539.0,653.0,97.0,247.0,511.2,507.9
292,1555414704.793889,516.0,506.0,97.0,247.0,509.6,508.1
293,1555414704.8711548,470.0,433.0,97.0,247.0,508.55,508.1
294,1555414704.9471457,518.0,544.0,97.0,247.0,508.6,509.95
295,1555414705.0151658,537.0,582.0,97.0,247.0,510.9,515.65
296,1555414705.0839047,530.0,573.0,97.0,247.0,512.55,518.85
297,1555414705.1581664,492.0,528.0,80.0,247.0,509.05,516.2
298,1555414705.2352622,484.0,476.0,80.0,247.0,507.6,515.4
299,1555414705.311232,509.0,530.0,80.0,247.0,509.6,519.6
300,1555414705.3853092,464.0,379.0,81.0,274.0,506.1,511.35
301,1555414705.4590318,514.0,523.0,81.0,274.0,505.25,512.15
302,1555414705.554698,511.0,459.0,81.0,274.0,507.55,508.1
303,1555414705.6262133,503.0,401.0,81.0,274.0,506.75,496.85
304,1555414705.6997674,547.0,568.0,83.0,274.0,508.4,502.8
305,1555414705.781896,537.0,493.0,83.0,274.0,511.9,503.25
306,1555414705.8596518,538.0,548.0,83.0,274.0,511.55,504.0
307,1555414705.9391403,495.0,477.0,83.0,274.0,509.8,500.3
308,1555414706.0219994,509.0,496.0,83.0,274.0,510.45,504.8
309,1555414706.0909193,509.0,492.0,83.0,274.0,512.0,507.65
310,1555414706.169423,501.0,521.0,83.0,274.0,511.15,509.1
311,1555414706.2539284,535.0,547.0,83.0,203.0,510.95,503.8
312,1555414706.336349,461.0,469.0,86.0,203.0,508.2,501.95
313,1555414706.4066133,461.0,469.0,86.0,203.0,507.75,503.75
314,1555414706.4790416,448.0,467.0,99.0,203.0,504.25,499.9
315,1555414706.5585256,569.0,563.0,121.0,194.0,505.85,498.95
316,1555414706.6355302,506.0,569.0,121.0,190.0,504.65,498.75
317,1555414706.7132254,543.0,578.0,121.0,199.0,507.2,501.25
318,1555414706.7926676,501.0,452.0,121.0,199.0,508.05,500.05
319,1555414706.8711953,520.0,558.0,121.0,199.0,508.6,501.45
320,1555414706.9456184,487.0,445.0,121.0,177.0,509.75,504.75
321,1555414707.029301,514.0,528.0,121.0,177.0,509.75,505.0
322,1555414707.105336,528.0,478.0,121.0,177.0,510.6,505.95
323,1555414707.1825013,525.0,474.0,121.0,133.0,511.7,509.6
324,1555414707.2665813,520.0,484.0,121.0,133.0,510.35,505.4
325,1555414707.34176,506.0,466.0,121.0,133.0,508.8,504.05
326,1555414707.4187884,502.0,498.0,121.0,133.0,507.0,501.55
327,1555414707.497898,525.0,501.0,121.0,133.0,508.5,502.75
328,1555414707.572616,508.0,513.0,121.0,133.0,508.45,503.6
329,1555414707.6480303,501.0,464.0,121.0,133.0,508.05,502.2
330,1555414707.719029,467.0,403.0,121.0,175.0,506.35,496.3
331,1555414707.790197,512.0,543.0,121.0,175.0,505.2,496.1
332,1555414707.8729882,527.0,573.0,121.0,175.0,508.5,501.3
333,1555414707.9446328,511.0,507.0,121.0,175.0,511.0,503.2
334,1555414708.013258,511.0,438.0,102.0,175.0,514.15,501.75
335,1555414708.0979004,515.0,552.0,76.0,175.0,511.45,501.2
336,1555414708.1784031,520.0,618.0,76.0,215.0,512.15,503.65
337,1555414708.2578487,534.0,517.0,67.0,215.0,511.7,500.6
338,1555414708.32726,501.0,532.0,67.0,215.0,511.7,504.6
339,1555414708.4036865,500.0,474.0,67.0,215.0,510.7,500.4
340,1555414708.47707,535.0,600.0,68.0,215.0,513.1,508.15
341,1555414708.5515585,497.0,446.0,68.0,215.0,512.25,504.05
342,1555414708.6295424,520.0,485.0,68.0,215.0,511.85,504.4
343,1555414708.712696,511.0,526.0,68.0,215.0,511.15,507.0
344,1555414708.7960522,539.0,561.0,72.0,215.0,512.1,510.85
345,1555414708.8698585,506.0,581.0,72.0,215.0,512.1,516.6
346,1555414708.954227,493.0,478.0,72.0,215.0,511.65,515.6
347,1555414709.0375667,497.0,531.0,72.0,215.0,510.25,517.1
348,1555414709.113801,499.0,531.0,72.0,215.0,509.8,518.0
349,1555414709.1854646,511.0,538.0,72.0,215.0,510.3,521.7
350,1555414709.2544773,514.0,483.0,46.0,180.0,512.65,525.7
351,1555414709.3269365,506.0,509.0,46.0,180.0,512.35,524.0
352,1555414709.3965173,516.0,489.0,46.0,180.0,511.8,519.8
353,1555414709.4678087,482.0,439.0,57.0,180.0,510.35,516.4
354,1555414709.553693,502.0,441.0,57.0,179.0,509.9,516.55
355,1555414709.6325681,504.0,531.0,57.0,179.0,509.35,515.5
356,1555414709.7103598,532.0,631.0,57.0,192.0,509.95,516.15
357,1555414709.7791317,519.0,487.0,57.0,192.0,509.2,514.65
358,1555414709.8511755,508.0,500.0,57.0,192.0,509.55,513.05
359,1555414709.9336724,540.0,581.0,58.0,192.0,511.55,518.4
360,1555414710.0119903,474.0,457.0,66.0,192.0,508.5,511.25
361,1555414710.0814629,520.0,527.0,66.0,192.0,509.65,515.3
362,1555414710.1500695,513.0,484.0,66.0,192.0,509.3,515.25
363,1555414710.217265,493.0,444.0,66.0,192.0,508.4,511.15
364,1555414710.2883615,504.0,504.0,66.0,192.0,506.65,508.3
365,1555414710.367201,538.0,478.0,66.0,192.0,508.25,503.15
366,1555414710.4334693,535.0,541.0,66.0,192.0,510.35,506.3
367,1555414710.5060365,487.0,466.0,66.0,192.0,509.85,503.05
368,1555414710.5774472,509.0,527.0,66.0,192.0,510.35,502.85
369,1555414710.6548672,509.0,478.0,66.0,192.0,510.25,499.85
370,1555414710.7285366,509.0,534.0,66.0,192.0,510.0,502.4
371,1555414710.7968667,542.0,563.0,68.0,192.0,511.8,505.1
372,1555414710.8717487,495.0,493.0,68.0,192.0,510.75,505.3
373,1555414710.9492524,509.0,519.0,68.0,190.0,512.1,509.3
374,1555414711.0297275,507.0,443.0,68.0,188.0,512.35,509.4
375,1555414711.1087039,494.0,425.0,68.0,206.0,511.85,504.1
376,1555414711.1791453,521.0,456.0,68.0,156.0,511.3,495.35
377,1555414711.2496796,520.0,440.0,68.0,156.0,511.35,493.0
378,1555414711.3380635,500.0,445.0,68.0,156.0,510.95,490.25
379,1555414711.4085968,501.0,455.0,68.0,138.0,509.0,483.95
380,1555414711.477968,528.0,560.0,55.0,138.0,511.7,489.1
381,1555414711.5460083,522.0,538.0,55.0,138.0,511.8,489.65
382,1555414711.6272542,524.0,453.0,55.0,138.0,512.35,488.1
383,1555414711.7133203,490.0,476.0,55.0,138.0,512.2,489.7
384,1555414711.7939544,476.0,526.0,66.0,138.0,510.8,490.8
385,1555414711.8647115,435.0,584.0,107.0,159.0,505.65,496.1
386,1555414711.9847474,477.0,575.0,107.0,159.0,502.75,497.8
387,1555414712.0691729,514.0,486.0,107.0,159.0,504.1,498.8
388,1555414712.1518764,512.0,455.0,107.0,159.0,504.25,495.2
389,1555414712.2335014,511.0,452.0,107.0,159.0,504.35,493.9
390,1555414712.3129427,480.0,491.0,107.0,159.0,502.9,491.75
391,1555414712.3859546,508.0,527.0,93.0,159.0,501.2,489.95
392,1555414712.472949,456.0,542.0,93.0,159.0,499.25,492.4
393,1555414712.5485234,502.0,488.0,93.0,159.0,498.9,490.85
394,1555414712.6228511,506.0,447.0,93.0,159.0,498.85,491.05
395,1555414712.6948838,488.0,431.0,93.0,153.0,498.55,491.35
396,1555414712.7659428,520.0,568.0,93.0,153.0,498.5,496.95
397,1555414712.8320856,522.0,478.0,93.0,153.0,498.6,498.85
398,1555414712.8995562,500.0,496.0,93.0,153.0,498.6,501.4
399,1555414712.9673393,479.0,578.0,93.0,153.0,497.5,507.55
400,1555414713.0502608,524.0,565.0,89.0,153.0,497.3,507.8
401,1555414713.137199,534.0,401.0,99.0,183.0,497.9,500.95
402,1555414713.2271607,514.0,368.0,99.0,216.0,497.4,496.7
403,1555414713.3133733,518.0,506.0,99.0,216.0,498.8,498.2
404,1555414713.3795974,541.0,601.0,106.0,233.0,502.05,501.95
405,1555414713.4469578,481.0,527.0,85.0,233.0,504.35,499.1
406,1555414713.5257018,505.0,536.0,85.0,233.0,505.75,497.15
407,1555414713.5980577,541.0,484.0,85.0,233.0,507.1,497.05
408,1555414713.6732113,524.0,441.0,85.0,233.0,507.7,496.35
409,1555414713.741685,519.0,636.0,85.0,268.0,508.1,505.55
410,1555414713.8088489,490.0,513.0,85.0,268.0,508.6,506.65
411,1555414713.8854554,497.0,524.0,85.0,268.0,508.05,506.5
412,1555414713.9637473,481.0,481.0,62.0,268.0,509.3,503.45
413,1555414714.0334032,487.0,424.0,62.0,268.0,508.55,500.25
414,1555414714.1068404,517.0,410.0,62.0,268.0,509.1,498.4
415,1555414714.1824503,569.0,492.0,90.0,268.0,513.15,501.45
416,1555414714.2629724,530.0,527.0,90.0,268.0,513.65,499.4
417,1555414714.338109,519.0,584.0,90.0,268.0,513.5,504.7
418,1555414714.4133527,485.0,561.0,90.0,268.0,512.75,507.95
419,1555414714.4966106,488.0,466.0,88.0,268.0,513.2,502.35
420,1555414714.569499,544.0,535.0,88.0,268.0,514.2,500.85
421,1555414714.6455526,542.0,451.0,88.0,268.0,514.6,503.35
422,1555414714.7385178,508.0,517.0,88.0,226.0,514.3,510.8
423,1555414714.8167715,483.0,518.0,88.0,226.0,512.55,511.4
424,1555414714.890571,508.0,581.0,88.0,226.0,510.9,510.4
425,1555414714.9701424,488.0,453.0,88.0,226.0,511.25,506.7
426,1555414715.0529096,534.0,512.0,88.0,226.0,512.7,505.5
427,1555414715.128507,522.0,495.0,88.0,226.0,511.75,506.05
428,1555414715.2034097,518.0,590.0,88.0,226.0,511.45,513.5
429,1555414715.2773857,464.0,442.0,105.0,180.0,508.7,503.8
430,1555414715.3480365,490.0,559.0,105.0,180.0,508.7,506.1
431,1555414715.4167151,499.0,481.0,105.0,180.0,508.8,503.95
432,1555414715.490783,556.0,560.0,105.0,180.0,512.55,507.9
433,1555414715.5730948,526.0,553.0,105.0,180.0,514.5,514.35
434,1555414715.650961,494.0,459.0,105.0,148.0,513.35,516.8
435,1555414715.7432413,488.0,446.0,92.0,148.0,509.3,514.5
436,1555414715.8199577,492.0,527.0,92.0,148.0,507.4,514.5
437,1555414715.896212,497.0,446.0,92.0,148.0,506.3,507.6
438,1555414715.9711037,527.0,470.0,92.0,148.0,508.4,503.05
439,1555414716.0529222,554.0,534.0,92.0,148.0,511.7,506.45
440,1555414716.1390667,494.0,473.0,92.0,148.0,509.2,503.35
441,1555414716.2196453,488.0,521.0,92.0,148.0,506.5,506.85
442,1555414716.296078,482.0,528.0,92.0,148.0,505.2,507.4
443,1555414716.3985858,487.0,561.0,92.0,148.0,505.4,509.55
444,1555414716.4756887,522.0,485.0,92.0,148.0,506.1,504.75
445,1555414716.5580547,520.0,456.0,92.0,148.0,507.7,504.9
446,1555414716.6343582,566.0,580.0,102.0,148.0,509.3,508.3
447,1555414716.711132,496.0,502.0,102.0,148.0,508.0,508.65
448,1555414716.8007925,489.0,498.0,102.0,138.0,506.55,504.05
449,1555414716.8729265,499.0,506.0,84.0,134.0,508.3,507.25
450,1555414716.9444375,533.0,645.0,84.0,199.0,510.45,511.55
451,1555414717.0205178,505.0,473.0,84.0,199.0,510.75,511.15
452,1555414717.0893016,510.0,473.0,84.0,199.0,508.45,506.8
453,1555414717.1608307,497.0,424.0,84.0,221.0,507.0,500.35
454,1555414717.2297518,506.0,501.0,84.0,221.0,507.6,502.45
455,1555414717.2969608,543.0,647.0,84.0,223.0,510.35,512.5
456,1555414717.3695626,504.0,597.0,84.0,223.0,510.95,516.0
457,1555414717.4565349,497.0,460.0,84.0,223.0,510.95,516.7
458,1555414717.5305617,512.0,475.0,84.0,223.0,510.2,516.95
459,1555414717.611736,488.0,406.0,84.0,241.0,506.9,510.55
460,1555414717.6849256,558.0,630.0,84.0,241.0,510.1,518.4
461,1555414717.7591574,505.0,530.0,84.0,241.0,510.95,518.85
462,1555414717.8290727,478.0,481.0,88.0,241.0,510.75,516.5
463,1555414717.8954346,462.0,476.0,104.0,241.0,509.5,512.25
464,1555414717.9619105,524.0,555.0,104.0,241.0,509.6,515.75
465,1555414718.0442905,501.0,432.0,104.0,241.0,508.65,514.55
466,1555414718.1195672,515.0,459.0,96.0,241.0,506.1,508.5
467,1555414718.192622,495.0,509.0,96.0,241.0,506.05,508.85
468,1555414718.2633357,507.0,526.0,96.0,241.0,506.95,510.25
469,1555414718.3406563,504.0,500.0,96.0,241.0,507.2,509.95
470,1555414718.4152539,487.0,461.0,96.0,241.0,504.9,500.75
471,1555414718.5004897,498.0,467.0,96.0,241.0,504.55,500.45
472,1555414718.5696805,499.0,454.0,96.0,241.0,504.0,499.5
473,1555414718.6427343,520.0,519.0,96.0,241.0,505.15,504.25
474,1555414718.714867,492.0,396.0,96.0,251.0,504.45,499.0
475,1555414718.7913556,529.0,495.0,96.0,234.0,503.75,491.4
476,1555414718.8600411,504.0,491.0,96.0,234.0,503.75,486.1
477,1555414718.9414263,500.0,547.0,96.0,234.0,503.9,490.45
478,1555414719.021006,516.0,523.0,96.0,234.0,504.1,492.85
479,1555414719.0933826,496.0,442.0,96.0,234.0,504.5,494.65
480,1555414719.160166,504.0,426.0,67.0,159.0,501.8,484.45
481,1555414719.2270684,479.0,464.0,67.0,159.0,500.5,481.15
482,1555414719.3016987,496.0,532.0,67.0,159.0,501.4,483.7
483,1555414719.3735936,515.0,506.0,50.0,159.0,504.05,485.2
484,1555414719.453428,508.0,515.0,50.0,151.0,503.25,483.2
485,1555414719.5267632,518.0,432.0,50.0,151.0,504.1,483.2
486,1555414719.6134698,509.0,432.0,50.0,151.0,503.8,481.85
487,1555414719.6872194,506.0,505.0,50.0,151.0,504.35,481.65
488,1555414719.7561362,492.0,509.0,50.0,151.0,503.6,480.8
489,1555414719.8304873,537.0,620.0,58.0,224.0,505.25,486.8
490,1555414719.904311,516.0,474.0,58.0,224.0,506.7,487.45
491,1555414719.9815016,535.0,531.0,58.0,224.0,508.55,490.65
492,1555414720.0584798,519.0,492.0,58.0,224.0,509.55,492.55
493,1555414720.1285794,486.0,536.0,58.0,224.0,507.85,493.4
494,1555414720.2056072,497.0,488.0,58.0,194.0,508.1,498.0
495,1555414720.2810314,518.0,526.0,58.0,194.0,507.55,499.55
496,1555414720.358105,514.0,477.0,58.0,194.0,508.05,498.85
497,1555414720.449436,505.0,510.0,58.0,194.0,508.3,497.0
498,1555414720.5259824,504.0,594.0,58.0,194.0,507.7,500.55
499,1555414720.6072311,498.0,514.0,58.0,194.0,507.8,504.15
500,1555414720.6766002,489.0,460.0,58.0,188.0,507.05,505.85
501,1555414720.7469435,524.0,479.0,51.0,188.0,509.3,506.6
502,1555414720.8219085,505.0,446.0,51.0,188.0,509.75,502.3
503,1555414720.897098,505.0,480.0,51.0,188.0,509.25,501.0
504,1555414720.983506,525.0,538.0,51.0,188.0,510.1,502.15
505,1555414721.0617354,517.0,574.0,51.0,188.0,510.05,509.25
506,1555414721.129735,520.0,492.0,51.0,174.0,510.6,512.25
507,1555414721.2140424,516.0,510.0,51.0,174.0,511.1,512.5
508,1555414721.2968616,507.0,524.0,51.0,174.0,511.85,513.25
509,1555414721.3773148,511.0,499.0,49.0,148.0,510.55,507.2
510,1555414721.4572103,487.0,452.0,49.0,148.0,509.1,506.1
511,1555414721.5439818,507.0,500.0,39.0,148.0,507.7,504.55
512,1555414721.616748,506.0,524.0,39.0,148.0,507.05,506.15
513,1555414721.70304,510.0,480.0,38.0,148.0,508.25,503.35
514,1555414721.773248,503.0,543.0,38.0,148.0,508.55,506.1
515,1555414721.8439622,502.0,556.0,38.0,148.0,507.75,507.6
516,1555414721.9208224,511.0,476.0,38.0,148.0,507.6,507.55
517,1555414721.989393,499.0,484.0,38.0,148.0,507.3,506.25
518,1555414722.0618334,530.0,655.0,43.0,209.0,508.6,509.3
519,1555414722.1362526,519.0,571.0,43.0,209.0,509.65,512.15
520,1555414722.2336087,530.0,432.0,43.0,223.0,511.7,510.75
521,1555414722.3072832,495.0,414.0,43.0,241.0,510.25,507.5
522,1555414722.3953428,532.0,557.0,45.0,241.0,511.6,513.05
523,1555414722.4699497,532.0,557.0,45.0,241.0,512.95,516.9
524,1555414722.5476816,481.0,399.0,51.0,256.0,510.75,509.95
525,1555414722.623872,527.0,711.0,51.0,312.0,511.25,516.8
526,1555414722.6946416,453.0,500.0,79.0,312.0,507.9,517.2
527,1555414722.77713,453.0,500.0,79.0,312.0,504.75,516.7
528,1555414722.8522031,541.0,432.0,88.0,312.0,506.45,512.1
529,1555414722.9295642,492.0,391.0,88.0,320.0,505.5,506.7
530,1555414723.004541,549.0,483.0,96.0,320.0,508.6,508.25
531,1555414723.088952,481.0,399.0,96.0,320.0,507.3,503.2
532,1555414723.1591578,527.0,711.0,96.0,320.0,508.35,512.55
533,1555414723.2474048,544.0,589.0,96.0,320.0,510.05,518.0
534,1555414723.3317363,453.0,500.0,96.0,320.0,507.55,515.85
535,1555414723.4039898,542.0,459.0,96.0,320.0,509.55,511.0
536,1555414723.5003557,525.0,571.0,96.0,320.0,510.25,515.75
537,1555414723.5734377,493.0,560.0,96.0,320.0,509.95,519.55
538,1555414723.6425426,483.0,622.0,96.0,320.0,507.6,517.9
539,1555414723.7171476,567.0,660.0,114.0,320.0,510.0,522.35
540,1555414723.7837288,542.0,597.0,114.0,320.0,510.6,530.6
541,1555414723.8513916,478.0,485.0,114.0,320.0,509.75,534.15
542,1555414723.9248097,513.0,350.0,114.0,361.0,508.8,523.8
543,1555414723.9990673,506.0,464.0,114.0,361.0,507.5,519.15
544,1555414724.0791702,546.0,592.0,114.0,361.0,510.75,528.8
545,1555414724.159046,549.0,678.0,114.0,361.0,511.85,527.15
546,1555414724.2321682,526.0,857.0,114.0,507.0,515.5,545.0
547,1555414724.309218,484.0,536.0,114.0,507.0,517.05,546.8
548,1555414724.3844116,513.0,765.0,114.0,507.0,515.65,563.45
549,1555414724.464016,535.0,729.0,114.0,507.0,517.8,580.35
550,1555414724.54336,422.0,343.0,145.0,514.0,511.45,573.35
551,1555414724.6117563,478.0,410.0,145.0,514.0,511.3,573.9
552,1555414724.6847324,558.0,640.0,145.0,514.0,512.85,570.35
553,1555414724.7619157,540.0,617.0,145.0,514.0,512.65,571.75
554,1555414724.842322,725.0,939.0,303.0,596.0,526.25,593.7
555,1555414724.9376643,558.0,473.0,303.0,596.0,527.05,594.4
556,1555414725.020131,482.0,251.0,303.0,688.0,524.9,578.4
557,1555414725.1087914,424.0,230.0,303.0,709.0,521.45,561.9
558,1555414725.183218,513.0,489.0,303.0,709.0,522.95,555.25
559,1555414725.261461,475.0,522.0,303.0,709.0,518.35,548.35
560,1555414725.3328824,462.0,361.0,303.0,709.0,514.35,536.55
561,1555414725.4139714,523.0,481.0,303.0,709.0,516.6,536.35
562,1555414725.495914,462.0,161.0,303.0,778.0,514.05,526.9
563,1555414725.5771084,486.0,206.0,303.0,778.0,513.05,514.0
564,1555414725.6596153,537.0,625.0,303.0,778.0,512.6,515.65
565,1555414725.7397547,492.0,480.0,303.0,778.0,509.75,505.75
566,1555414725.8079093,482.0,375.0,303.0,778.0,507.55,481.65
567,1555414725.8898525,489.0,364.0,303.0,778.0,507.8,473.05
568,1555414725.968503,587.0,681.0,303.0,778.0,511.5,468.85
569,1555414726.0520794,561.0,689.0,303.0,778.0,512.8,466.85
570,1555414726.1385336,516.0,447.0,301.0,778.0,517.5,472.05
571,1555414726.2127714,514.0,486.0,301.0,778.0,519.3,475.85
572,1555414726.2898579,514.0,544.0,301.0,778.0,517.1,471.05
573,1555414726.3658903,480.0,483.0,301.0,778.0,514.1,464.35
574,1555414726.441381,505.0,521.0,163.0,528.0,503.1,443.45
575,1555414726.5184042,551.0,523.0,163.0,528.0,502.75,445.95
576,1555414726.5972598,552.0,487.0,163.0,528.0,506.25,457.75
577,1555414726.6757627,540.0,701.0,125.0,540.0,512.05,481.3
578,1555414726.7516606,555.0,591.0,125.0,540.0,514.15,486.4
579,1555414726.8278735,492.0,224.0,125.0,540.0,515.0,471.5
580,1555414726.9197335,526.0,297.0,125.0,540.0,518.2,468.3
581,1555414726.9931567,452.0,351.0,135.0,540.0,514.65,461.8
582,1555414727.0749354,553.0,596.0,135.0,495.0,519.2,483.55
583,1555414727.156261,507.0,462.0,135.0,477.0,520.25,496.35
584,1555414727.2546442,490.0,457.0,135.0,477.0,517.9,487.95
585,1555414727.3343797,466.0,409.0,135.0,477.0,516.6,484.4
586,1555414727.4058845,472.0,454.0,135.0,477.0,516.1,488.35
587,1555414727.4722161,474.0,387.0,135.0,477.0,515.35,489.5
588,1555414727.5441213,518.0,526.0,109.0,477.0,511.9,481.75
589,1555414727.6204402,512.0,473.0,103.0,477.0,509.45,470.95
590,1555414727.6929495,513.0,543.0,103.0,477.0,509.3,475.75
591,1555414727.773023,503.0,494.0,103.0,477.0,508.75,476.15
592,1555414727.8462832,493.0,487.0,103.0,477.0,507.7,473.3
593,1555414727.9164753,470.0,494.0,103.0,477.0,507.2,473.85
594,1555414727.9898345,470.0,434.0,103.0,477.0,505.45,469.5
595,1555414728.0657816,498.0,593.0,103.0,477.0,502.8,473.0
596,1555414728.1367416,472.0,418.0,103.0,477.0,498.8,469.55
597,1555414728.2208843,512.0,523.0,103.0,372.0,497.4,460.65
598,1555414728.303879,513.0,631.0,101.0,407.0,495.3,462.65
599,1555414728.3790398,502.0,508.0,101.0,334.0,495.8,476.85
600,1555414728.4629722,515.0,463.0,101.0,280.0,495.25,485.15
601,1555414728.5330317,519.0,474.0,87.0,244.0,498.6,491.3
602,1555414728.6135783,523.0,573.0,57.0,244.0,497.1,490.15
603,1555414728.689677,473.0,428.0,57.0,244.0,495.4,488.45
604,1555414728.7767112,471.0,387.0,57.0,244.0,494.45,484.95
605,1555414728.8475246,483.0,448.0,53.0,244.0,495.3,486.9
606,1555414728.9370904,502.0,458.0,53.0,244.0,496.8,487.1
607,1555414729.003566,514.0,471.0,53.0,244.0,498.8,491.3
608,1555414729.0919142,527.0,536.0,57.0,244.0,499.25,491.8
609,1555414729.1652408,521.0,548.0,57.0,244.0,499.7,495.55
610,1555414729.2407796,523.0,588.0,57.0,244.0,500.2,497.8
611,1555414729.308463,518.0,523.0,57.0,244.0,500.95,499.25
612,1555414729.3905501,468.0,383.0,59.0,248.0,499.7,494.05
613,1555414729.4615338,480.0,421.0,59.0,248.0,500.2,490.4
614,1555414729.5391276,488.0,521.0,59.0,248.0,501.1,494.75
615,1555414729.6140862,514.0,531.0,59.0,248.0,501.9,491.65
616,1555414729.6911733,532.0,579.0,64.0,248.0,504.9,499.7
617,1555414729.7692564,505.0,461.0,64.0,248.0,504.55,496.6
618,1555414729.8551362,485.0,548.0,64.0,205.0,503.15,492.45
619,1555414729.938273,490.0,472.0,64.0,205.0,502.55,490.65
620,1555414730.0059843,506.0,533.0,64.0,205.0,502.1,494.15
621,1555414730.075669,537.0,600.0,69.0,217.0,503.0,500.45
622,1555414730.1538525,506.0,593.0,69.0,217.0,502.15,501.45
623,1555414730.2251396,517.0,547.0,69.0,217.0,504.35,507.4
624,1555414730.3051121,497.0,492.0,69.0,217.0,505.65,512.65
625,1555414730.3824973,525.0,542.0,69.0,217.0,507.75,517.35
626,1555414730.4615097,475.0,414.0,69.0,217.0,506.4,515.15
627,1555414730.5462575,543.0,613.0,75.0,230.0,507.85,522.25
628,1555414730.6170466,502.0,524.0,75.0,230.0,506.6,521.65
629,1555414730.6892073,496.0,522.0,75.0,230.0,505.35,520.35
630,1555414730.7598891,526.0,548.0,75.0,230.0,505.5,518.35
631,1555414730.8390014,548.0,638.0,80.0,255.0,507.0,524.1
632,1555414730.9204538,557.0,542.0,82.0,224.0,511.45,532.05
633,1555414730.9867103,547.0,579.0,82.0,224.0,514.8,539.95
634,1555414731.0550153,534.0,538.0,82.0,224.0,517.1,540.8
635,1555414731.123699,533.0,523.0,82.0,224.0,518.05,540.4
636,1555414731.1976302,500.0,422.0,82.0,224.0,516.45,532.55
637,1555414731.2814415,452.0,293.0,105.0,345.0,513.8,524.15
638,1555414731.3606875,544.0,673.0,105.0,380.0,516.75,530.4
639,1555414731.448405,539.0,596.0,105.0,380.0,519.2,536.6
640,1555414731.5299437,529.0,586.0,105.0,380.0,520.35,539.25
641,1555414731.600383,490.0,453.0,105.0,380.0,518.0,531.9
642,1555414731.6840434,489.0,433.0,105.0,380.0,517.15,523.9
643,1555414731.7594445,496.0,450.0,105.0,380.0,516.1,519.05
644,1555414731.8308496,538.0,587.0,105.0,380.0,518.15,523.8
645,1555414731.9022708,562.0,697.0,110.0,404.0,520.0,531.55
646,1555414731.9822633,571.0,729.0,119.0,436.0,524.8,547.3
647,1555414732.0485156,458.0,420.0,119.0,436.0,520.55,537.65
648,1555414732.1164,459.0,371.0,119.0,436.0,518.4,530.0
649,1555414732.1839406,516.0,542.0,119.0,436.0,519.4,531.0
650,1555414732.2564762,477.0,387.0,119.0,436.0,516.95,522.95
651,1555414732.327727,499.0,456.0,119.0,436.0,514.5,513.85
652,1555414732.4025023,546.0,533.0,119.0,436.0,513.95,513.4
653,1555414732.482673,562.0,644.0,119.0,436.0,514.7,516.65
654,1555414732.5629947,553.0,649.0,119.0,436.0,515.65,522.2
655,1555414732.6459732,480.0,496.0,119.0,436.0,513.0,520.85
656,1555414732.7126894,451.0,333.0,120.0,436.0,510.55,516.4
657,1555414732.7809584,408.0,305.0,163.0,424.0,508.35,517.0
658,1555414732.8613768,520.0,431.0,163.0,424.0,507.15,504.9
659,1555414732.941041,540.0,534.0,163.0,424.0,507.2,501.8
660,1555414733.0151572,544.0,618.0,163.0,424.0,507.95,503.4
661,1555414733.0971832,515.0,497.0,163.0,424.0,509.2,505.6
662,1555414733.2001605,459.0,311.0,163.0,424.0,507.7,499.5
663,1555414733.2753801,443.0,319.0,163.0,424.0,505.05,492.95
664,1555414733.3599372,497.0,446.0,163.0,424.0,503.0,485.9
665,1555414733.4383733,521.0,390.0,163.0,424.0,500.95,470.55
666,1555414733.5190616,566.0,714.0,158.0,409.0,500.7,469.8
667,1555414733.604641,494.0,408.0,158.0,409.0,502.5,469.2
668,1555414733.672867,462.0,367.0,158.0,409.0,502.65,469.0
669,1555414733.7508616,502.0,360.0,158.0,409.0,501.95,459.9
670,1555414733.8168578,556.0,505.0,158.0,409.0,505.9,465.8
671,1555414733.8940978,549.0,535.0,158.0,409.0,508.4,469.75
672,1555414733.9724479,447.0,340.0,158.0,409.0,503.45,460.1
673,1555414734.0480058,455.0,393.0,158.0,409.0,498.1,447.55
674,1555414734.1272109,551.0,637.0,158.0,409.0,498.0,446.95
675,1555414734.2096758,533.0,678.0,158.0,409.0,500.65,456.05
676,1555414734.2844462,478.0,451.0,158.0,409.0,502.0,461.95
677,1555414734.3608186,533.0,459.0,123.0,403.0,508.25,469.65
678,1555414734.444182,504.0,487.0,123.0,403.0,507.45,472.45
679,1555414734.5338562,476.0,350.0,123.0,403.0,504.25,463.25
680,1555414734.6003475,504.0,429.0,123.0,403.0,502.25,453.8
681,1555414734.6735914,507.0,416.0,123.0,403.0,501.85,449.75
682,1555414734.7429054,485.0,475.0,123.0,395.0,503.15,457.95
683,1555414734.8162625,480.0,397.0,119.0,374.0,505.0,461.85
684,1555414734.8899336,612.0,705.0,165.0,374.0,510.75,474.8
685,1555414734.995618,571.0,692.0,165.0,374.0,513.25,489.9
686,1555414735.0655115,457.0,403.0,165.0,365.0,507.8,474.35
687,1555414735.1324487,478.0,457.0,165.0,365.0,507.0,476.8
688,1555414735.202849,503.0,569.0,165.0,365.0,509.05,486.9
689,1555414735.2725756,513.0,502.0,165.0,365.0,509.6,494.0
690,1555414735.351183,570.0,607.0,165.0,365.0,510.3,499.1
691,1555414735.4406106,519.0,497.0,165.0,365.0,508.8,497.2
692,1555414735.5217745,437.0,268.0,175.0,437.0,508.3,493.6
693,1555414735.5899694,451.0,306.0,175.0,437.0,508.1,489.25
694,1555414735.6603856,469.0,389.0,175.0,437.0,504.0,476.85
695,1555414735.7385335,598.0,698.0,175.0,437.0,507.25,477.85
696,1555414735.816911,533.0,609.0,175.0,437.0,510.0,485.75
697,1555414735.8950312,467.0,498.0,175.0,437.0,506.7,487.7
698,1555414735.9708912,486.0,501.0,175.0,437.0,505.8,488.4
699,1555414736.0513027,557.0,740.0,175.0,472.0,509.85,507.9
700,1555414736.1440952,490.0,548.0,175.0,472.0,509.15,513.85
701,1555414736.2166111,455.0,460.0,175.0,472.0,506.55,516.05
702,1555414736.2943685,553.0,716.0,175.0,472.0,509.95,528.1
703,1555414736.3954024,518.0,558.0,175.0,472.0,511.85,536.15
704,1555414736.4664962,488.0,206.0,161.0,534.0,505.65,511.2
705,1555414736.5425608,545.0,332.0,161.0,534.0,504.35,493.2
706,1555414736.6225233,572.0,535.0,161.0,534.0,510.1,499.8
707,1555414736.6947858,519.0,324.0,161.0,534.0,512.15,493.15
708,1555414736.7729394,536.0,414.0,161.0,534.0,513.8,485.4
709,1555414736.8390603,482.0,357.0,161.0,534.0,512.25,478.15
710,1555414736.9229639,420.0,356.0,178.0,534.0,504.75,465.6
711,1555414736.9956665,499.0,421.0,178.0,534.0,503.75,461.8
712,1555414737.0782628,525.0,431.0,178.0,534.0,508.15,469.95
713,1555414737.1458957,496.0,533.0,178.0,534.0,510.4,481.3
714,1555414737.2453141,561.0,730.0,178.0,534.0,515.0,498.35
715,1555414737.320811,621.0,961.0,201.0,755.0,516.15,511.5
716,1555414737.401415,526.0,944.0,201.0,755.0,515.8,528.25
717,1555414737.4807086,495.0,608.0,201.0,755.0,517.2,533.75
718,1555414737.566294,491.0,607.0,201.0,755.0,517.45,539.05
719,1555414737.6362815,424.0,388.0,201.0,755.0,510.8,521.45
720,1555414737.726098,484.0,402.0,201.0,755.0,510.5,514.15
721,1555414737.8086047,588.0,690.0,201.0,755.0,517.15,525.65
722,1555414737.879775,558.0,596.0,201.0,755.0,517.4,519.65
723,1555414737.9482126,497.0,372.0,201.0,755.0,516.35,510.35
724,1555414738.0152178,470.0,299.0,201.0,662.0,515.45,515.0
725,1555414738.0909986,513.0,248.0,201.0,713.0,513.85,510.8
726,1555414738.1681821,548.0,180.0,201.0,781.0,512.65,493.05
727,1555414738.2551444,513.0,286.0,201.0,781.0,512.35,491.15
728,1555414738.3386939,494.0,266.0,201.0,781.0,510.25,483.75
729,1555414738.4127653,511.0,591.0,201.0,781.0,511.7,495.45
730,1555414738.491996,465.0,377.0,197.0,781.0,513.95,496.5
731,1555414738.5761251,495.0,533.0,197.0,781.0,513.75,502.1
732,1555414738.646963,544.0,787.0,197.0,781.0,514.7,519.9
733,1555414738.7292817,505.0,541.0,197.0,781.0,515.15,520.3
734,1555414738.803867,496.0,668.0,197.0,781.0,511.9,517.2
735,1555414738.886451,539.0,627.0,164.0,764.0,507.8,500.5
736,1555414738.9782655,477.0,458.0,164.0,607.0,505.35,476.2
737,1555414739.0656128,485.0,524.0,164.0,607.0,504.85,472.0
738,1555414739.142359,507.0,588.0,164.0,607.0,505.65,471.05
739,1555414739.227503,496.0,618.0,123.0,607.0,509.25,482.55
740,1555414739.3034022,469.0,522.0,123.0,607.0,508.5,488.55
741,1555414739.3701756,539.0,720.0,93.0,607.0,506.05,490.05
742,1555414739.4398367,557.0,765.0,92.0,607.0,506.0,498.5
743,1555414739.5196226,495.0,650.0,92.0,607.0,505.9,512.4
744,1555414739.5943422,536.0,772.0,92.0,607.0,509.2,536.05
745,1555414739.6620364,533.0,714.0,92.0,607.0,510.2,559.35
746,1555414739.7310383,495.0,565.0,92.0,521.0,507.55,578.6
747,1555414739.8054998,426.0,394.0,131.0,521.0,503.2,584.0
748,1555414739.8807971,523.0,709.0,131.0,410.0,504.65,606.15
749,1555414739.966489,508.0,857.0,131.0,480.0,504.5,619.45
750,1555414740.0397706,496.0,547.0,131.0,463.0,506.05,627.95
751,1555414740.11377,498.0,574.0,131.0,463.0,506.2,630.0
752,1555414740.187041,464.0,425.0,131.0,463.0,502.2,611.9
753,1555414740.2594733,490.0,298.0,131.0,559.0,501.45,599.75
754,1555414740.329196,599.0,712.0,173.0,559.0,506.6,601.95
755,1555414740.4135225,538.0,628.0,173.0,559.0,506.55,602.0
756,1555414740.486586,494.0,520.0,173.0,559.0,507.4,605.1
757,1555414740.556948,473.0,376.0,173.0,559.0,506.8,597.7
758,1555414740.6459856,538.0,466.0,173.0,559.0,508.35,591.6
759,1555414740.7202277,515.0,492.0,173.0,559.0,509.3,585.3
760,1555414740.7933898,536.0,443.0,173.0,559.0,512.65,581.35
761,1555414740.8620071,520.0,506.0,173.0,559.0,511.7,570.65
762,1555414740.93196,506.0,326.0,173.0,559.0,509.15,548.7
763,1555414741.0063562,478.0,448.0,173.0,559.0,508.3,538.6
764,1555414741.0934536,506.0,399.0,173.0,559.0,506.8,519.95
765,1555414741.1660657,542.0,395.0,173.0,559.0,507.25,504.0
766,1555414741.2385297,544.0,535.0,173.0,559.0,509.7,502.5
767,1555414741.3133745,508.0,476.0,135.0,559.0,513.8,506.6
768,1555414741.3828783,481.0,469.0,135.0,559.0,511.7,494.6
769,1555414741.4594069,489.0,527.0,135.0,414.0,510.75,478.1
770,1555414741.5323696,471.0,544.0,135.0,414.0,509.5,477.95
771,1555414741.5981765,496.0,689.0,135.0,414.0,509.4,483.7
772,1555414741.6739118,511.0,650.0,128.0,414.0,511.75,494.95
773,1555414741.7522335,528.0,722.0,128.0,396.0,513.65,516.15
774,1555414741.832026,488.0,655.0,73.0,396.0,508.1,513.3
775,1555414741.909939,491.0,524.0,73.0,396.0,505.75,508.1
776,1555414741.9836276,484.0,461.0,73.0,396.0,505.25,505.15
777,1555414742.064246,517.0,503.0,73.0,396.0,507.45,511.5
778,1555414742.137826,512.0,553.0,73.0,396.0,506.15,515.85
779,1555414742.211419,509.0,487.0,73.0,396.0,505.85,515.6
780,1555414742.2886693,513.0,438.0,73.0,396.0,504.7,515.35
781,1555414742.3716586,498.0,404.0,73.0,396.0,503.6,510.25
782,1555414742.4509308,486.0,490.0,73.0,327.0,502.6,518.45
783,1555414742.5252028,511.0,410.0,73.0,327.0,504.25,516.55
784,1555414742.5964234,511.0,390.0,73.0,332.0,504.5,516.1
785,1555414742.6773922,522.0,343.0,73.0,379.0,503.5,513.5
786,1555414742.746221,492.0,367.0,57.0,379.0,500.9,505.1
787,1555414742.8333135,481.0,309.0,57.0,413.0,499.55,496.75
788,1555414742.9031484,556.0,335.0,85.0,413.0,503.3,490.05
789,1555414743.0132797,621.0,735.0,150.0,426.0,509.9,500.45
790,1555414743.0962377,615.0,799.0,140.0,490.0,517.1,513.2
791,1555414743.1625493,551.0,528.0,140.0,490.0,519.85,505.15
792,1555414743.2303267,430.0,365.0,191.0,490.0,515.8,490.9
793,1555414743.3050776,422.0,551.0,199.0,490.0,510.5,482.35
794,1555414743.3758945,410.0,536.0,211.0,490.0,506.6,476.4
795,1555414743.4530957,485.0,588.0,211.0,490.0,506.3,479.6
796,1555414743.5221286,667.0,723.0,257.0,490.0,515.45,492.7
797,1555414743.5914233,557.0,369.0,257.0,490.0,517.45,486.0
798,1555414743.6643913,434.0,240.0,257.0,559.0,513.55,470.35
799,1555414743.7348297,409.0,116.0,258.0,683.0,508.55,451.8
800,1555414743.8181689,541.0,499.0,258.0,683.0,509.95,454.85
801,1555414743.8878467,493.0,624.0,258.0,683.0,509.7,465.85
802,1555414743.9621782,418.0,549.0,258.0,683.0,506.3,468.8
803,1555414744.0366704,350.0,88.0,317.0,711.0,498.25,452.7
804,1555414744.1120002,446.0,379.0,317.0,711.0,495.0,452.15
805,1555414744.183567,471.0,448.0,317.0,711.0,492.45,457.4
806,1555414744.2690053,666.0,647.0,317.0,711.0,501.15,471.4
807,1555414744.3560975,727.0,691.0,377.0,711.0,513.45,490.5
808,1555414744.4414265,599.0,665.0,377.0,711.0,515.6,507.0
809,1555414744.5105562,583.0,595.0,377.0,711.0,513.7,500.0
810,1555414744.5764081,402.0,4.0,377.0,719.0,503.05,460.25
811,1555414744.6472387,358.0,158.0,377.0,719.0,493.4,441.75
812,1555414744.730399,404.0,452.0,377.0,719.0,492.1,446.1
813,1555414744.822163,520.0,625.0,377.0,719.0,497.0,449.8
814,1555414744.8941028,559.0,588.0,377.0,719.0,504.45,452.4
815,1555414744.9703877,701.0,646.0,377.0,719.0,515.25,455.3
816,1555414745.0469213,618.0,607.0,377.0,687.0,512.8,449.5
817,1555414745.1267881,486.0,288.0,377.0,687.0,509.25,445.45
818,1555414745.2049026,444.0,230.0,377.0,687.0,509.75,444.95
819,1555414745.2733083,457.0,374.0,377.0,687.0,512.15,457.85
820,1555414745.3446937,513.0,579.0,377.0,687.0,510.75,461.85
821,1555414745.4164498,465.0,589.0,377.0,687.0,509.35,460.1
822,1555414745.4880378,475.0,556.0,377.0,687.0,512.2,460.45
823,1555414745.5644426,464.0,902.0,369.0,898.0,517.9,501.15
824,1555414745.6380763,503.0,751.0,369.0,898.0,520.75,519.75
825,1555414745.7124853,501.0,640.0,369.0,898.0,522.25,529.35
826,1555414745.795229,505.0,562.0,369.0,898.0,514.2,525.1
827,1555414745.8659136,464.0,548.0,343.0,898.0,501.05,517.95
828,1555414745.942133,529.0,634.0,343.0,898.0,497.55,516.4
829,1555414746.0338275,548.0,595.0,343.0,898.0,495.8,516.4
830,1555414746.114828,537.0,494.0,343.0,744.0,502.55,540.9
831,1555414746.1874526,480.0,438.0,297.0,672.0,508.65,554.9
832,1555414746.256069,541.0,293.0,257.0,672.0,515.5,546.95
833,1555414746.346102,531.0,395.0,257.0,672.0,516.05,535.45
834,1555414746.4276245,575.0,589.0,257.0,672.0,516.85,535.5
835,1555414746.516137,600.0,657.0,174.0,672.0,511.8,536.05
836,1555414746.5884788,446.0,397.0,156.0,672.0,503.2,525.55
837,1555414746.6596627,441.0,348.0,159.0,672.0,500.95,528.55
838,1555414746.7347589,441.0,348.0,159.0,609.0,500.8,534.45
839,1555414746.821744,441.0,348.0,159.0,609.0,500.0,533.15
840,1555414746.9012182,441.0,348.0,159.0,609.0,496.4,521.6
841,1555414746.9876266,441.0,348.0,159.0,609.0,495.2,509.55
842,1555414747.0552168,441.0,348.0,159.0,609.0,493.5,499.15
843,1555414747.121704,441.0,348.0,159.0,458.0,492.35,471.45
844,1555414747.21154,441.0,348.0,159.0,364.0,489.25,451.3
845,1555414747.2927272,441.0,348.0,159.0,364.0,486.25,436.7
846,1555414747.3604593,441.0,348.0,159.0,364.0,483.05,426.0
847,1555414747.4417024,441.0,348.0,159.0,364.0,481.9,416.0
848,1555414747.5300016,441.0,348.0,159.0,364.0,477.5,401.7
849,1555414747.6161666,441.0,348.0,159.0,364.0,472.15,389.35
850,1555414747.7085752,441.0,348.0,159.0,364.0,467.35,382.05
851,1555414747.7798598,441.0,348.0,159.0,364.0,465.4,377.55
852,1555414747.8566957,441.0,348.0,159.0,309.0,460.4,380.3
853,1555414747.932996,441.0,348.0,159.0,309.0,455.9,377.95
854,1555414748.0158753,441.0,348.0,159.0,309.0,449.2,365.9
855,1555414748.0968523,441.0,348.0,5.0,49.0,441.25,350.45
856,1555414748.166181,441.0,348.0,0.0,0.0,441.0,348.0
857,1555414748.2524161,441.0,348.0,0.0,0.0,441.0,348.0
858,1555414748.352654,441.0,348.0,0.0,0.0,441.0,348.0
859,1555414748.4330971,441.0,348.0,0.0,0.0,441.0,348.0
860,1555414748.511752,441.0,348.0,0.0,0.0,441.0,348.0
861,1555414748.5775588,441.0,348.0,0.0,0.0,441.0,348.0
862,1555414748.6523376,441.0,348.0,0.0,0.0,441.0,348.0
863,1555414748.7248821,441.0,348.0,0.0,0.0,441.0,348.0
864,1555414748.8023098,441.0,348.0,0.0,0.0,441.0,348.0
865,1555414748.8753445,441.0,348.0,0.0,0.0,441.0,348.0
866,1555414748.9712903,441.0,348.0,0.0,0.0,441.0,348.0
867,1555414749.0650847,441.0,348.0,0.0,0.0,441.0,348.0
868,1555414749.1403472,441.0,348.0,0.0,0.0,441.0,348.0
869,1555414749.212165,441.0,348.0,0.0,0.0,441.0,348.0
870,1555414749.2872124,441.0,348.0,0.0,0.0,441.0,348.0
871,1555414749.3643644,441.0,348.0,0.0,0.0,441.0,348.0
872,1555414749.45277,441.0,348.0,0.0,0.0,441.0,348.0
873,1555414749.5326774,441.0,348.0,0.0,0.0,441.0,348.0
874,1555414749.601254,441.0,348.0,0.0,0.0,441.0,348.0
875,1555414749.6836,441.0,348.0,0.0,0.0,441.0,348.0
876,1555414749.7552423,441.0,348.0,0.0,0.0,441.0,348.0
877,1555414749.8324394,441.0,348.0,0.0,0.0,441.0,348.0
878,1555414749.8987148,441.0,348.0,0.0,0.0,441.0,348.0
879,1555414749.9690678,441.0,348.0,0.0,0.0,441.0,348.0
880,1555414750.0409613,441.0,348.0,0.0,0.0,441.0,348.0
881,1555414750.1190634,441.0,348.0,0.0,0.0,441.0,348.0
882,1555414750.1984234,441.0,348.0,0.0,0.0,441.0,348.0
883,1555414750.28891,441.0,348.0,0.0,0.0,441.0,348.0
884,1555414750.3704822,441.0,348.0,0.0,0.0,441.0,348.0
885,1555414750.4412723,441.0,348.0,0.0,0.0,441.0,348.0
886,1555414750.5138993,441.0,348.0,0.0,0.0,441.0,348.0
887,1555414750.5844114,441.0,348.0,0.0,0.0,441.0,348.0
888,1555414750.6647573,441.0,348.0,0.0,0.0,441.0,348.0
889,1555414750.7337544,441.0,348.0,0.0,0.0,441.0,348.0
890,1555414750.8036218,441.0,348.0,0.0,0.0,441.0,348.0
891,1555414750.8770008,441.0,348.0,0.0,0.0,441.0,348.0
892,1555414750.9472318,441.0,348.0,0.0,0.0,441.0,348.0
893,1555414751.0209484,441.0,348.0,0.0,0.0,441.0,348.0
894,1555414751.11489,441.0,348.0,0.0,0.0,441.0,348.0
895,1555414751.200906,441.0,348.0,0.0,0.0,441.0,348.0
896,1555414751.2926545,441.0,348.0,0.0,0.0,441.0,348.0
897,1555414751.3750646,441.0,348.0,0.0,0.0,441.0,348.0
898,1555414751.466061,441.0,348.0,0.0,0.0,441.0,348.0
899,1555414751.5383563,441.0,348.0,0.0,0.0,441.0,348.0
900,1555414751.6375077,441.0,348.0,0.0,0.0,441.0,348.0
901,1555414751.717848,441.0,348.0,0.0,0.0,441.0,348.0
902,1555414751.7954674,441.0,348.0,0.0,0.0,441.0,348.0
903,1555414751.873524,441.0,348.0,0.0,0.0,441.0,348.0
904,1555414751.9600132,441.0,348.0,0.0,0.0,441.0,348.0
905,1555414752.0522203,441.0,348.0,0.0,0.0,441.0,348.0
906,1555414752.1221344,441.0,348.0,0.0,0.0,441.0,348.0
