,emg_min_0,emg_min_1,emg_min_2,emg_prev_0_0,emg_prev_0_1,emg_prev_0_2,emg_prev_0_3,emg_prev_0_4,emg_prev_0_5,emg_prev_0_6,emg_prev_0_7,emg_prev_0_8,emg_prev_0_9,emg_prev_0_10,emg_prev_0_11,emg_prev_0_12,emg_prev_0_13,emg_prev_0_14,emg_prev_0_15,emg_prev_0_16,emg_prev_0_17,emg_prev_0_18,emg_prev_0_19,emg_prev_1_0,emg_prev_1_1,emg_prev_1_2,emg_prev_1_3,emg_prev_1_4,emg_prev_1_5,emg_prev_1_6,emg_prev_1_7,emg_prev_1_8,emg_prev_1_9,emg_prev_1_10,emg_prev_1_11,emg_prev_1_12,emg_prev_1_13,emg_prev_1_14,emg_prev_1_15,emg_prev_1_16,emg_prev_1_17,emg_prev_1_18,emg_prev_1_19,emg_prev_2_0,emg_prev_2_1,emg_prev_2_2,emg_prev_2_3,emg_prev_2_4,emg_prev_2_5,emg_prev_2_6,emg_prev_2_7,emg_prev_2_8,emg_prev_2_9,emg_prev_2_10,emg_prev_2_11,emg_prev_2_12,emg_prev_2_13,emg_prev_2_14,emg_prev_2_15,emg_prev_2_16,emg_prev_2_17,emg_prev_2_18,emg_prev_2_19,emg_med_0,emg_med_1,emg_med_2,emg_0,emg_1,emg_2,emg_ampl_0,emg_ampl_1,emg_ampl_2,emg_max_0,emg_max_1,emg_max_2
0,0.0,0.0,0.0,0.0,0.0,0.0,0.0,0.0,0.0,0.0,0.0,0.0,0.0,0.0,0.0,0.0,0.0,0.0,0.0,0.0,0.0,0.0,0.0,0.0,0.0,0.0,0.0,0.0,0.0,0.0,0.0,0.0,0.0,0.0,0.0,0.0,0.0,0.0,0.0,0.0,0.0,0.0,0.0,0.0,0.0,0.0,0.0,0.0,0.0,0.0,0.0,0.0,0.0,0.0,0.0,0.0,0.0,0.0,0.0,0.0,0.0,0.0,0.0,0.0,0.0,0.0,0.0,0.0,0.0,0.0,0.0,0.0,0.0,0.0,0.0
0,486.0,501.0,439.0,486.0,486.0,486.0,486.0,486.0,505.0,505.0,505.0,505.0,505.0,500.0,500.0,500.0,500.0,500.0,509.0,509.0,509.0,509.0,517.0,517.0,517.0,517.0,517.0,517.0,501.0,501.0,501.0,501.0,501.0,503.0,503.0,503.0,503.0,503.0,504.0,504.0,504.0,504.0,496.0,522.0,522.0,522.0,522.0,522.0,484.0,484.0,484.0,484.0,484.0,450.0,450.0,450.0,450.0,450.0,439.0,439.0,439.0,439.0,429.0,503.1111111111111,511.1111111111111,529.7777777777778,509.0,504.0,439.0,27.0,22.0,161.0,509.0,517.0,522.0
0,500.0,496.0,408.0,505.0,505.0,505.0,505.0,500.0,500.0,500.0,500.0,500.0,509.0,509.0,509.0,509.0,509.0,517.0,517.0,517.0,517.0,517.0,507.0,501.0,501.0,501.0,501.0,503.0,503.0,503.0,503.0,503.0,504.0,504.0,504.0,504.0,504.0,496.0,496.0,496.0,496.0,496.0,502.0,484.0,484.0,484.0,484.0,450.0,450.0,450.0,450.0,450.0,439.0,439.0,439.0,439.0,439.0,429.0,429.0,429.0,429.0,429.0,408.0,504.35555555555555,507.8222222222222,506.73333333333335,507.0,502.0,408.0,31.0,21.0,192.0,517.0,504.0,484.0
0,500.0,496.0,408.0,505.0,500.0,500.0,500.0,500.0,500.0,509.0,509.0,509.0,509.0,509.0,517.0,517.0,517.0,517.0,517.0,507.0,507.0,507.0,507.0,501.0,503.0,503.0,503.0,503.0,503.0,504.0,504.0,504.0,504.0,504.0,496.0,496.0,496.0,496.0,496.0,502.0,502.0,502.0,502.0,484.0,450.0,450.0,450.0,450.0,450.0,439.0,439.0,439.0,439.0,439.0,429.0,429.0,429.0,429.0,429.0,408.0,408.0,408.0,408.0,504.4222222222222,506.9555555555556,493.93333333333334,507.0,502.0,408.0,31.0,21.0,192.0,517.0,504.0,484.0
0,500.0,496.0,408.0,500.0,509.0,509.0,509.0,509.0,509.0,517.0,517.0,517.0,517.0,517.0,507.0,507.0,507.0,507.0,507.0,507.0,507.0,507.0,508.0,503.0,504.0,504.0,504.0,504.0,504.0,496.0,496.0,496.0,496.0,496.0,502.0,502.0,502.0,502.0,497.0,497.0,497.0,497.0,500.0,450.0,439.0,439.0,439.0,439.0,439.0,429.0,429.0,429.0,429.0,429.0,408.0,408.0,408.0,408.0,423.0,423.0,423.0,423.0,444.0,505.1777777777778,505.2,477.4888888888889,508.0,500.0,444.0,31.0,21.0,161.0,517.0,504.0,450.0
0,507.0,496.0,408.0,509.0,509.0,517.0,517.0,517.0,517.0,517.0,507.0,507.0,507.0,507.0,507.0,507.0,507.0,507.0,508.0,508.0,508.0,508.0,509.0,504.0,504.0,496.0,496.0,496.0,496.0,496.0,502.0,502.0,502.0,502.0,497.0,497.0,497.0,497.0,500.0,500.0,500.0,500.0,507.0,439.0,439.0,429.0,429.0,429.0,429.0,429.0,408.0,408.0,408.0,408.0,423.0,423.0,423.0,423.0,444.0,444.0,444.0,444.0,470.0,505.6666666666667,504.06666666666666,467.4888888888889,509.0,507.0,470.0,31.0,21.0,153.0,517.0,507.0,470.0
0,500.0,496.0,408.0,517.0,517.0,507.0,507.0,507.0,507.0,507.0,507.0,507.0,507.0,508.0,508.0,508.0,508.0,509.0,509.0,509.0,509.0,509.0,500.0,496.0,496.0,502.0,502.0,502.0,502.0,497.0,497.0,497.0,497.0,500.0,500.0,500.0,500.0,507.0,507.0,507.0,507.0,507.0,511.0,429.0,429.0,408.0,408.0,408.0,408.0,423.0,423.0,423.0,423.0,444.0,444.0,444.0,444.0,470.0,470.0,470.0,470.0,470.0,492.0,505.4222222222222,503.6666666666667,458.93333333333334,500.0,511.0,492.0,31.0,21.0,137.0,517.0,511.0,492.0
0,500.0,497.0,408.0,507.0,507.0,507.0,507.0,507.0,507.0,508.0,508.0,508.0,508.0,509.0,509.0,509.0,509.0,509.0,500.0,500.0,500.0,500.0,516.0,502.0,502.0,497.0,497.0,497.0,497.0,500.0,500.0,500.0,500.0,507.0,507.0,507.0,507.0,507.0,511.0,511.0,511.0,511.0,510.0,408.0,408.0,423.0,423.0,423.0,423.0,444.0,444.0,444.0,444.0,470.0,470.0,470.0,470.0,470.0,492.0,492.0,492.0,492.0,521.0,505.8222222222222,503.46666666666664,455.8888888888889,516.0,510.0,521.0,31.0,21.0,114.0,516.0,511.0,521.0
0,496.0,497.0,423.0,507.0,507.0,508.0,508.0,508.0,508.0,509.0,509.0,509.0,509.0,509.0,500.0,500.0,500.0,500.0,516.0,516.0,516.0,516.0,496.0,497.0,497.0,500.0,500.0,500.0,500.0,507.0,507.0,507.0,507.0,507.0,511.0,511.0,511.0,511.0,510.0,510.0,510.0,510.0,527.0,423.0,423.0,444.0,444.0,444.0,444.0,470.0,470.0,470.0,470.0,470.0,492.0,492.0,492.0,492.0,521.0,521.0,521.0,521.0,536.0,507.6222222222222,503.5777777777778,456.97777777777776,496.0,527.0,536.0,21.0,31.0,128.0,516.0,527.0,536.0
0,496.0,500.0,444.0,508.0,508.0,509.0,509.0,509.0,509.0,509.0,500.0,500.0,500.0,500.0,516.0,516.0,516.0,496.0,496.0,496.0,496.0,514.0,514.0,500.0,500.0,507.0,507.0,507.0,507.0,507.0,511.0,511.0,511.0,511.0,510.0,510.0,510.0,527.0,527.0,527.0,527.0,525.0,525.0,444.0,444.0,470.0,470.0,470.0,470.0,470.0,492.0,492.0,492.0,492.0,521.0,521.0,521.0,536.0,536.0,536.0,536.0,564.0,564.0,507.22222222222223,505.84444444444443,462.22222222222223,514.0,525.0,564.0,21.0,31.0,156.0,516.0,527.0,564.0
0,496.0,507.0,470.0,509.0,509.0,509.0,500.0,500.0,500.0,500.0,516.0,516.0,516.0,516.0,496.0,496.0,496.0,496.0,514.0,514.0,514.0,514.0,500.0,507.0,507.0,507.0,511.0,511.0,511.0,511.0,510.0,510.0,510.0,510.0,527.0,527.0,527.0,527.0,525.0,525.0,525.0,525.0,533.0,470.0,470.0,470.0,492.0,492.0,492.0,492.0,521.0,521.0,521.0,521.0,536.0,536.0,536.0,536.0,564.0,564.0,564.0,564.0,572.0,508.15555555555557,507.97777777777776,472.53333333333336,500.0,533.0,572.0,21.0,37.0,164.0,516.0,533.0,572.0
0,496.0,510.0,492.0,500.0,500.0,516.0,516.0,516.0,516.0,496.0,496.0,496.0,496.0,514.0,514.0,514.0,514.0,500.0,500.0,500.0,500.0,500.0,508.0,511.0,511.0,510.0,510.0,510.0,510.0,527.0,527.0,527.0,527.0,525.0,525.0,525.0,525.0,533.0,533.0,533.0,533.0,533.0,532.0,492.0,492.0,521.0,521.0,521.0,521.0,536.0,536.0,536.0,536.0,564.0,564.0,564.0,564.0,572.0,572.0,572.0,572.0,572.0,589.0,507.53333333333336,511.2,487.44444444444446,508.0,532.0,589.0,21.0,37.0,181.0,516.0,533.0,589.0
0,496.0,510.0,521.0,516.0,516.0,496.0,496.0,496.0,496.0,514.0,514.0,514.0,514.0,500.0,500.0,500.0,500.0,500.0,508.0,508.0,508.0,508.0,508.0,510.0,510.0,527.0,527.0,527.0,527.0,525.0,525.0,525.0,525.0,533.0,533.0,533.0,533.0,533.0,532.0,532.0,532.0,532.0,526.0,521.0,521.0,536.0,536.0,536.0,536.0,564.0,564.0,564.0,564.0,572.0,572.0,572.0,572.0,572.0,589.0,589.0,589.0,589.0,580.0,506.9111111111111,514.0888888888888,501.24444444444447,508.0,526.0,580.0,21.0,37.0,181.0,516.0,533.0,589.0
0,496.0,525.0,536.0,496.0,496.0,514.0,514.0,514.0,514.0,500.0,500.0,500.0,500.0,500.0,508.0,508.0,508.0,508.0,508.0,508.0,508.0,508.0,508.0,527.0,527.0,525.0,525.0,525.0,525.0,533.0,533.0,533.0,533.0,533.0,532.0,532.0,532.0,532.0,526.0,526.0,526.0,526.0,526.0,536.0,536.0,564.0,564.0,564.0,564.0,572.0,572.0,572.0,572.0,572.0,589.0,589.0,589.0,589.0,580.0,580.0,580.0,580.0,580.0,506.55555555555554,516.4888888888889,515.6,508.0,526.0,580.0,20.0,36.0,181.0,514.0,533.0,589.0
0,500.0,522.0,552.0,514.0,514.0,500.0,500.0,500.0,500.0,500.0,508.0,508.0,508.0,508.0,508.0,508.0,508.0,508.0,508.0,509.0,509.0,515.0,515.0,525.0,525.0,533.0,533.0,533.0,533.0,533.0,532.0,532.0,532.0,532.0,526.0,526.0,526.0,526.0,526.0,522.0,522.0,522.0,522.0,564.0,564.0,572.0,572.0,572.0,572.0,572.0,589.0,589.0,589.0,589.0,580.0,580.0,580.0,580.0,580.0,564.0,564.0,552.0,552.0,506.8222222222222,517.9333333333333,525.4,515.0,522.0,552.0,20.0,36.0,166.0,515.0,533.0,589.0
0,500.0,515.0,534.0,500.0,500.0,508.0,508.0,508.0,508.0,508.0,508.0,508.0,508.0,508.0,509.0,509.0,515.0,515.0,515.0,515.0,515.0,515.0,505.0,533.0,533.0,532.0,532.0,532.0,532.0,526.0,526.0,526.0,526.0,526.0,522.0,522.0,522.0,522.0,522.0,522.0,522.0,522.0,515.0,572.0,572.0,589.0,589.0,589.0,589.0,580.0,580.0,580.0,580.0,580.0,564.0,564.0,552.0,552.0,552.0,552.0,552.0,552.0,534.0,507.6,520.9111111111112,540.8,505.0,515.0,534.0,20.0,33.0,145.0,515.0,533.0,589.0
0,505.0,510.0,508.0,508.0,508.0,508.0,508.0,508.0,508.0,509.0,509.0,515.0,515.0,515.0,515.0,515.0,515.0,505.0,505.0,505.0,505.0,505.0,506.0,532.0,526.0,526.0,526.0,526.0,526.0,522.0,522.0,522.0,522.0,522.0,522.0,522.0,522.0,515.0,515.0,515.0,515.0,515.0,510.0,589.0,580.0,580.0,580.0,580.0,580.0,564.0,564.0,552.0,552.0,552.0,552.0,552.0,552.0,534.0,534.0,534.0,534.0,534.0,508.0,507.2,521.8444444444444,547.9111111111112,506.0,510.0,508.0,20.0,26.0,119.0,515.0,532.0,589.0
0,505.0,510.0,483.0,508.0,509.0,509.0,515.0,515.0,515.0,515.0,515.0,515.0,505.0,505.0,505.0,505.0,505.0,506.0,506.0,506.0,506.0,514.0,514.0,526.0,522.0,522.0,522.0,522.0,522.0,522.0,522.0,522.0,515.0,515.0,515.0,515.0,515.0,510.0,510.0,510.0,510.0,512.0,512.0,580.0,564.0,564.0,552.0,552.0,552.0,552.0,552.0,552.0,534.0,534.0,534.0,534.0,534.0,508.0,508.0,508.0,508.0,483.0,483.0,508.02222222222224,521.9111111111112,549.0666666666667,514.0,512.0,483.0,20.0,23.0,106.0,515.0,526.0,580.0
0,505.0,510.0,483.0,515.0,515.0,515.0,515.0,515.0,505.0,505.0,505.0,505.0,505.0,506.0,506.0,506.0,506.0,514.0,514.0,514.0,514.0,514.0,502.0,522.0,522.0,522.0,522.0,522.0,515.0,515.0,515.0,515.0,515.0,510.0,510.0,510.0,510.0,512.0,512.0,512.0,512.0,512.0,509.0,552.0,552.0,552.0,552.0,552.0,534.0,534.0,534.0,534.0,534.0,508.0,508.0,508.0,508.0,483.0,483.0,483.0,483.0,483.0,475.0,507.84444444444443,522.0888888888888,545.6888888888889,514.0,512.0,483.0,19.0,23.0,106.0,515.0,522.0,552.0
0,502.0,504.0,441.0,515.0,505.0,505.0,505.0,505.0,505.0,506.0,506.0,506.0,506.0,514.0,514.0,514.0,514.0,514.0,514.0,502.0,502.0,502.0,502.0,522.0,515.0,515.0,515.0,515.0,515.0,510.0,510.0,510.0,510.0,512.0,512.0,512.0,512.0,512.0,512.0,509.0,509.0,509.0,504.0,552.0,534.0,534.0,534.0,534.0,534.0,508.0,508.0,508.0,508.0,483.0,483.0,483.0,483.0,483.0,483.0,475.0,475.0,475.0,441.0,508.3777777777778,520.3777777777777,539.5111111111111,502.0,504.0,441.0,15.0,29.0,148.0,515.0,522.0,552.0
0,502.0,504.0,441.0,505.0,505.0,506.0,506.0,506.0,506.0,514.0,514.0,514.0,514.0,514.0,514.0,502.0,502.0,502.0,502.0,502.0,502.0,502.0,518.0,515.0,515.0,510.0,510.0,510.0,510.0,512.0,512.0,512.0,512.0,512.0,512.0,509.0,509.0,509.0,504.0,504.0,504.0,504.0,506.0,534.0,534.0,508.0,508.0,508.0,508.0,483.0,483.0,483.0,483.0,483.0,483.0,475.0,475.0,475.0,441.0,441.0,441.0,441.0,450.0,507.6666666666667,518.5555555555555,528.7777777777778,518.0,506.0,450.0,18.0,29.0,148.0,518.0,515.0,534.0
0,502.0,501.0,441.0,506.0,506.0,514.0,514.0,514.0,514.0,514.0,514.0,502.0,502.0,502.0,502.0,502.0,502.0,502.0,518.0,518.0,518.0,518.0,520.0,510.0,510.0,512.0,512.0,512.0,512.0,512.0,512.0,509.0,509.0,509.0,504.0,504.0,504.0,504.0,506.0,506.0,506.0,506.0,501.0,508.0,508.0,483.0,483.0,483.0,483.0,483.0,483.0,475.0,475.0,475.0,441.0,441.0,441.0,441.0,450.0,450.0,450.0,450.0,476.0,509.31111111111113,516.0444444444445,518.5111111111111,520.0,501.0,476.0,20.0,32.0,148.0,520.0,512.0,508.0
0,502.0,501.0,441.0,514.0,514.0,514.0,502.0,502.0,502.0,502.0,502.0,502.0,502.0,518.0,518.0,518.0,518.0,520.0,520.0,520.0,520.0,510.0,510.0,512.0,512.0,512.0,509.0,509.0,509.0,504.0,504.0,504.0,504.0,506.0,506.0,506.0,506.0,501.0,501.0,501.0,501.0,510.0,510.0,483.0,483.0,483.0,475.0,475.0,475.0,441.0,441.0,441.0,441.0,450.0,450.0,450.0,450.0,476.0,476.0,476.0,476.0,486.0,486.0,510.6,512.7777777777778,506.55555555555554,510.0,510.0,486.0,18.0,25.0,139.0,520.0,512.0,486.0
0,492.0,501.0,441.0,502.0,502.0,502.0,502.0,502.0,518.0,518.0,518.0,518.0,520.0,520.0,520.0,520.0,520.0,510.0,510.0,510.0,510.0,492.0,492.0,509.0,504.0,504.0,504.0,504.0,506.0,506.0,506.0,506.0,501.0,501.0,501.0,501.0,501.0,510.0,510.0,510.0,510.0,513.0,513.0,475.0,441.0,441.0,441.0,441.0,450.0,450.0,450.0,450.0,476.0,476.0,476.0,476.0,476.0,486.0,486.0,486.0,486.0,480.0,480.0,510.3777777777778,511.4222222222222,495.84444444444443,492.0,513.0,480.0,28.0,25.0,139.0,520.0,513.0,486.0
0,492.0,501.0,441.0,502.0,518.0,518.0,518.0,518.0,520.0,520.0,520.0,520.0,520.0,510.0,510.0,510.0,510.0,492.0,492.0,492.0,492.0,504.0,504.0,504.0,506.0,506.0,506.0,506.0,501.0,501.0,501.0,501.0,501.0,510.0,510.0,510.0,510.0,513.0,513.0,513.0,513.0,505.0,505.0,441.0,450.0,450.0,450.0,450.0,476.0,476.0,476.0,476.0,476.0,486.0,486.0,486.0,486.0,480.0,480.0,480.0,480.0,492.0,492.0,508.77777777777777,509.97777777777776,489.44444444444446,504.0,505.0,492.0,28.0,21.0,111.0,520.0,513.0,492.0
0,492.0,501.0,450.0,518.0,518.0,520.0,520.0,520.0,520.0,520.0,510.0,510.0,510.0,510.0,492.0,492.0,492.0,492.0,504.0,504.0,504.0,504.0,508.0,506.0,506.0,501.0,501.0,501.0,501.0,501.0,510.0,510.0,510.0,510.0,513.0,513.0,513.0,513.0,505.0,505.0,505.0,505.0,509.0,450.0,450.0,476.0,476.0,476.0,476.0,476.0,486.0,486.0,486.0,486.0,480.0,480.0,480.0,480.0,492.0,492.0,492.0,492.0,510.0,508.1333333333333,508.93333333333334,485.84444444444443,508.0,509.0,510.0,28.0,21.0,111.0,520.0,513.0,510.0
0,492.0,501.0,476.0,520.0,520.0,520.0,510.0,510.0,510.0,510.0,492.0,492.0,492.0,492.0,504.0,504.0,504.0,508.0,508.0,508.0,508.0,503.0,503.0,501.0,501.0,501.0,510.0,510.0,510.0,510.0,513.0,513.0,513.0,513.0,505.0,505.0,505.0,509.0,509.0,509.0,509.0,504.0,504.0,476.0,476.0,476.0,486.0,486.0,486.0,486.0,480.0,480.0,480.0,480.0,492.0,492.0,492.0,510.0,510.0,510.0,510.0,518.0,518.0,508.06666666666666,508.1333333333333,483.4888888888889,503.0,504.0,518.0,28.0,14.0,93.0,520.0,513.0,518.0
0,492.0,500.0,480.0,510.0,510.0,510.0,492.0,492.0,492.0,492.0,504.0,504.0,504.0,504.0,508.0,508.0,508.0,508.0,503.0,503.0,503.0,506.0,506.0,510.0,510.0,510.0,513.0,513.0,513.0,513.0,505.0,505.0,505.0,505.0,509.0,509.0,509.0,504.0,504.0,504.0,504.0,500.0,500.0,486.0,486.0,486.0,480.0,480.0,480.0,480.0,492.0,492.0,492.0,492.0,510.0,510.0,510.0,518.0,518.0,518.0,518.0,507.0,507.0,507.9111111111111,507.2888888888889,482.97777777777776,506.0,500.0,507.0,28.0,13.0,77.0,510.0,513.0,518.0
0,492.0,500.0,480.0,492.0,492.0,504.0,504.0,504.0,504.0,508.0,508.0,508.0,508.0,503.0,503.0,503.0,503.0,506.0,506.0,506.0,506.0,514.0,514.0,513.0,513.0,505.0,505.0,505.0,505.0,509.0,509.0,509.0,509.0,504.0,504.0,504.0,504.0,500.0,500.0,500.0,500.0,507.0,507.0,480.0,480.0,492.0,492.0,492.0,492.0,510.0,510.0,510.0,510.0,518.0,518.0,518.0,518.0,507.0,507.0,507.0,507.0,495.0,495.0,507.73333333333335,506.35555555555555,484.0,514.0,507.0,495.0,28.0,13.0,77.0,514.0,513.0,518.0
0,503.0,500.0,492.0,504.0,504.0,508.0,508.0,508.0,508.0,503.0,503.0,503.0,503.0,506.0,506.0,506.0,506.0,514.0,514.0,514.0,514.0,522.0,522.0,505.0,505.0,509.0,509.0,509.0,509.0,504.0,504.0,504.0,504.0,500.0,500.0,500.0,500.0,507.0,507.0,507.0,507.0,520.0,520.0,492.0,492.0,510.0,510.0,510.0,510.0,518.0,518.0,518.0,518.0,507.0,507.0,507.0,507.0,495.0,495.0,495.0,495.0,493.0,493.0,508.35555555555555,506.55555555555554,485.15555555555557,522.0,520.0,493.0,30.0,20.0,77.0,522.0,520.0,518.0
0,503.0,500.0,493.0,508.0,508.0,508.0,503.0,503.0,503.0,503.0,506.0,506.0,506.0,506.0,514.0,514.0,514.0,514.0,522.0,522.0,522.0,510.0,510.0,509.0,509.0,509.0,504.0,504.0,504.0,504.0,500.0,500.0,500.0,500.0,507.0,507.0,507.0,507.0,520.0,520.0,520.0,512.0,512.0,510.0,510.0,510.0,518.0,518.0,518.0,518.0,507.0,507.0,507.0,507.0,495.0,495.0,495.0,495.0,493.0,493.0,493.0,494.0,494.0,509.15555555555557,507.0444444444444,487.15555555555557,510.0,512.0,494.0,30.0,20.0,77.0,522.0,520.0,518.0
0,503.0,500.0,493.0,503.0,503.0,503.0,506.0,506.0,506.0,506.0,514.0,514.0,514.0,514.0,522.0,522.0,522.0,510.0,510.0,510.0,510.0,513.0,513.0,504.0,504.0,504.0,500.0,500.0,500.0,500.0,507.0,507.0,507.0,507.0,520.0,520.0,520.0,512.0,512.0,512.0,512.0,528.0,528.0,518.0,518.0,518.0,507.0,507.0,507.0,507.0,495.0,495.0,495.0,495.0,493.0,493.0,493.0,494.0,494.0,494.0,494.0,501.0,501.0,509.5777777777778,508.06666666666666,491.8222222222222,513.0,528.0,501.0,30.0,28.0,68.0,522.0,528.0,518.0
0,506.0,500.0,493.0,506.0,506.0,506.0,514.0,514.0,514.0,514.0,522.0,522.0,522.0,510.0,510.0,510.0,510.0,510.0,513.0,513.0,513.0,513.0,523.0,500.0,500.0,500.0,507.0,507.0,507.0,507.0,520.0,520.0,520.0,512.0,512.0,512.0,512.0,512.0,528.0,528.0,528.0,528.0,514.0,507.0,507.0,507.0,495.0,495.0,495.0,495.0,493.0,493.0,493.0,494.0,494.0,494.0,494.0,494.0,501.0,501.0,501.0,501.0,503.0,509.31111111111113,509.8222222222222,495.8222222222222,523.0,514.0,503.0,31.0,28.0,42.0,523.0,528.0,507.0
0,494.0,507.0,484.0,514.0,514.0,514.0,522.0,522.0,522.0,510.0,510.0,510.0,510.0,510.0,513.0,513.0,513.0,513.0,523.0,523.0,523.0,494.0,494.0,507.0,507.0,507.0,520.0,520.0,520.0,512.0,512.0,512.0,512.0,512.0,528.0,528.0,528.0,528.0,514.0,514.0,514.0,535.0,535.0,495.0,495.0,495.0,493.0,493.0,493.0,494.0,494.0,494.0,494.0,494.0,501.0,501.0,501.0,501.0,503.0,503.0,503.0,484.0,484.0,508.2888888888889,511.9111111111111,497.3777777777778,494.0,535.0,484.0,31.0,35.0,38.0,523.0,535.0,503.0
0,494.0,512.0,484.0,522.0,522.0,510.0,510.0,510.0,510.0,510.0,513.0,513.0,513.0,513.0,523.0,523.0,523.0,494.0,494.0,494.0,494.0,506.0,506.0,520.0,520.0,512.0,512.0,512.0,512.0,512.0,528.0,528.0,528.0,528.0,514.0,514.0,514.0,535.0,535.0,535.0,535.0,530.0,530.0,493.0,493.0,494.0,494.0,494.0,494.0,494.0,501.0,501.0,501.0,501.0,503.0,503.0,503.0,484.0,484.0,484.0,484.0,489.0,489.0,507.4,513.9111111111112,497.4222222222222,506.0,530.0,489.0,31.0,35.0,38.0,523.0,535.0,503.0
0,494.0,512.0,484.0,510.0,510.0,510.0,513.0,513.0,513.0,513.0,523.0,523.0,523.0,494.0,494.0,494.0,494.0,506.0,506.0,506.0,506.0,516.0,516.0,512.0,512.0,512.0,528.0,528.0,528.0,528.0,514.0,514.0,514.0,535.0,535.0,535.0,535.0,530.0,530.0,530.0,530.0,517.0,517.0,494.0,494.0,494.0,501.0,501.0,501.0,501.0,503.0,503.0,503.0,484.0,484.0,484.0,484.0,489.0,489.0,489.0,489.0,484.0,484.0,509.0888888888889,514.8444444444444,498.0,516.0,517.0,484.0,29.0,35.0,34.0,523.0,535.0,503.0
0,494.0,497.0,476.0,513.0,513.0,513.0,523.0,523.0,523.0,494.0,494.0,494.0,494.0,506.0,506.0,506.0,506.0,516.0,516.0,516.0,516.0,552.0,552.0,528.0,528.0,528.0,514.0,514.0,514.0,535.0,535.0,535.0,535.0,530.0,530.0,530.0,530.0,517.0,517.0,517.0,517.0,497.0,497.0,501.0,501.0,501.0,503.0,503.0,503.0,484.0,484.0,484.0,484.0,489.0,489.0,489.0,489.0,484.0,484.0,484.0,484.0,476.0,476.0,511.75555555555553,515.0222222222222,496.93333333333334,552.0,497.0,476.0,58.0,38.0,42.0,552.0,535.0,503.0
0,494.0,497.0,476.0,523.0,523.0,523.0,494.0,494.0,494.0,494.0,506.0,506.0,506.0,506.0,516.0,516.0,516.0,516.0,552.0,552.0,552.0,552.0,515.0,514.0,514.0,514.0,535.0,535.0,535.0,535.0,530.0,530.0,530.0,530.0,517.0,517.0,517.0,517.0,497.0,497.0,497.0,497.0,510.0,503.0,503.0,503.0,484.0,484.0,484.0,484.0,489.0,489.0,489.0,489.0,484.0,484.0,484.0,484.0,476.0,476.0,476.0,476.0,482.0,513.8666666666667,514.5111111111111,494.8,515.0,510.0,482.0,58.0,38.0,42.0,552.0,535.0,503.0
0,494.0,488.0,476.0,494.0,506.0,506.0,506.0,506.0,516.0,516.0,516.0,516.0,552.0,552.0,552.0,552.0,515.0,515.0,515.0,515.0,515.0,512.0,512.0,535.0,530.0,530.0,530.0,530.0,517.0,517.0,517.0,517.0,497.0,497.0,497.0,497.0,510.0,510.0,510.0,510.0,510.0,488.0,488.0,484.0,489.0,489.0,489.0,489.0,484.0,484.0,484.0,484.0,476.0,476.0,476.0,476.0,482.0,482.0,482.0,482.0,482.0,491.0,491.0,515.1555555555556,514.3111111111111,490.8222222222222,512.0,488.0,491.0,58.0,47.0,31.0,552.0,535.0,491.0
0,480.0,488.0,476.0,506.0,516.0,516.0,516.0,516.0,552.0,552.0,552.0,552.0,515.0,515.0,515.0,515.0,515.0,512.0,512.0,512.0,512.0,480.0,480.0,530.0,517.0,517.0,517.0,517.0,497.0,497.0,497.0,497.0,510.0,510.0,510.0,510.0,510.0,488.0,488.0,488.0,488.0,511.0,511.0,489.0,484.0,484.0,484.0,484.0,476.0,476.0,476.0,476.0,482.0,482.0,482.0,482.0,482.0,491.0,491.0,491.0,491.0,480.0,480.0,514.0888888888888,514.1111111111111,489.1777777777778,480.0,511.0,480.0,72.0,47.0,27.0,552.0,530.0,491.0
0,480.0,488.0,476.0,516.0,516.0,552.0,552.0,552.0,552.0,515.0,515.0,515.0,515.0,515.0,512.0,512.0,512.0,512.0,480.0,480.0,480.0,497.0,497.0,517.0,517.0,497.0,497.0,497.0,497.0,510.0,510.0,510.0,510.0,510.0,488.0,488.0,488.0,488.0,511.0,511.0,511.0,500.0,500.0,484.0,484.0,476.0,476.0,476.0,476.0,482.0,482.0,482.0,482.0,482.0,491.0,491.0,491.0,491.0,480.0,480.0,480.0,544.0,544.0,512.5777777777778,513.8888888888889,491.02222222222224,497.0,500.0,544.0,72.0,47.0,68.0,552.0,517.0,544.0
0,480.0,488.0,476.0,552.0,552.0,515.0,515.0,515.0,515.0,515.0,512.0,512.0,512.0,512.0,480.0,480.0,480.0,497.0,497.0,497.0,497.0,513.0,513.0,497.0,497.0,510.0,510.0,510.0,510.0,510.0,488.0,488.0,488.0,488.0,511.0,511.0,511.0,500.0,500.0,500.0,500.0,510.0,510.0,476.0,476.0,482.0,482.0,482.0,482.0,482.0,491.0,491.0,491.0,491.0,480.0,480.0,480.0,544.0,544.0,544.0,544.0,585.0,585.0,511.3333333333333,512.7333333333333,497.35555555555555,513.0,510.0,585.0,72.0,47.0,109.0,552.0,511.0,585.0
0,480.0,488.0,480.0,515.0,515.0,515.0,512.0,512.0,512.0,512.0,480.0,480.0,480.0,497.0,497.0,497.0,497.0,513.0,513.0,513.0,513.0,517.0,517.0,510.0,510.0,510.0,488.0,488.0,488.0,488.0,511.0,511.0,511.0,500.0,500.0,500.0,500.0,510.0,510.0,510.0,510.0,502.0,502.0,482.0,482.0,482.0,491.0,491.0,491.0,491.0,480.0,480.0,480.0,544.0,544.0,544.0,544.0,585.0,585.0,585.0,585.0,620.0,620.0,511.77777777777777,512.2,507.0,517.0,502.0,620.0,72.0,47.0,144.0,517.0,511.0,620.0
0,480.0,488.0,480.0,512.0,512.0,512.0,480.0,480.0,480.0,497.0,497.0,497.0,497.0,513.0,513.0,513.0,513.0,517.0,517.0,517.0,517.0,526.0,526.0,488.0,488.0,488.0,511.0,511.0,511.0,500.0,500.0,500.0,500.0,510.0,510.0,510.0,510.0,502.0,502.0,502.0,502.0,512.0,512.0,491.0,491.0,491.0,480.0,480.0,480.0,544.0,544.0,544.0,544.0,585.0,585.0,585.0,585.0,620.0,620.0,620.0,620.0,618.0,618.0,512.5333333333333,510.3333333333333,517.4888888888889,526.0,512.0,618.0,72.0,47.0,144.0,526.0,512.0,620.0
0,480.0,492.0,480.0,480.0,480.0,497.0,497.0,497.0,497.0,513.0,513.0,513.0,513.0,517.0,517.0,517.0,517.0,526.0,526.0,526.0,526.0,506.0,506.0,511.0,511.0,500.0,500.0,500.0,500.0,510.0,510.0,510.0,510.0,502.0,502.0,502.0,502.0,512.0,512.0,512.0,512.0,492.0,492.0,480.0,480.0,544.0,544.0,544.0,544.0,585.0,585.0,585.0,585.0,620.0,620.0,620.0,620.0,618.0,618.0,618.0,618.0,573.0,573.0,512.5555555555555,508.8,526.1333333333333,506.0,492.0,573.0,72.0,47.0,144.0,526.0,512.0,620.0
0,497.0,492.0,544.0,497.0,497.0,497.0,513.0,513.0,513.0,513.0,517.0,517.0,517.0,517.0,526.0,526.0,526.0,526.0,506.0,506.0,506.0,506.0,498.0,500.0,500.0,500.0,510.0,510.0,510.0,510.0,502.0,502.0,502.0,502.0,512.0,512.0,512.0,512.0,492.0,492.0,492.0,492.0,504.0,544.0,544.0,544.0,585.0,585.0,585.0,585.0,620.0,620.0,620.0,620.0,618.0,618.0,618.0,618.0,573.0,573.0,573.0,573.0,555.0,513.1777777777778,506.2,531.6666666666666,498.0,504.0,555.0,72.0,42.0,144.0,526.0,512.0,620.0
0,498.0,492.0,555.0,513.0,513.0,517.0,517.0,517.0,517.0,526.0,526.0,526.0,526.0,506.0,506.0,506.0,506.0,498.0,498.0,498.0,498.0,498.0,498.0,510.0,510.0,502.0,502.0,502.0,502.0,512.0,512.0,512.0,512.0,492.0,492.0,492.0,492.0,504.0,504.0,504.0,504.0,504.0,504.0,585.0,585.0,620.0,620.0,620.0,620.0,618.0,618.0,618.0,618.0,573.0,573.0,573.0,573.0,555.0,555.0,555.0,555.0,555.0,555.0,512.0666666666667,503.6,539.1111111111111,498.0,504.0,555.0,72.0,29.0,144.0,526.0,512.0,620.0
0,498.0,490.0,555.0,517.0,517.0,526.0,526.0,526.0,526.0,506.0,506.0,506.0,506.0,498.0,498.0,498.0,498.0,498.0,498.0,504.0,504.0,504.0,504.0,502.0,502.0,512.0,512.0,512.0,512.0,492.0,492.0,492.0,492.0,504.0,504.0,504.0,504.0,504.0,504.0,490.0,490.0,490.0,490.0,620.0,620.0,618.0,618.0,618.0,618.0,573.0,573.0,573.0,573.0,555.0,555.0,555.0,555.0,555.0,555.0,557.0,557.0,557.0,557.0,510.2,501.64444444444445,545.7777777777778,504.0,490.0,557.0,72.0,24.0,144.0,526.0,512.0,620.0
0,483.0,490.0,555.0,526.0,526.0,526.0,506.0,506.0,506.0,506.0,498.0,498.0,498.0,498.0,498.0,498.0,504.0,504.0,504.0,504.0,494.0,494.0,483.0,512.0,512.0,512.0,492.0,492.0,492.0,492.0,504.0,504.0,504.0,504.0,504.0,504.0,490.0,490.0,490.0,490.0,498.0,498.0,502.0,618.0,618.0,618.0,573.0,573.0,573.0,573.0,555.0,555.0,555.0,555.0,555.0,555.0,557.0,557.0,557.0,557.0,574.0,574.0,571.0,506.0888888888889,501.8,552.2444444444444,483.0,502.0,571.0,46.0,24.0,140.0,526.0,512.0,618.0
0,483.0,490.0,534.0,506.0,506.0,506.0,506.0,498.0,498.0,498.0,498.0,498.0,498.0,504.0,504.0,504.0,504.0,494.0,494.0,483.0,483.0,483.0,539.0,492.0,492.0,492.0,492.0,504.0,504.0,504.0,504.0,504.0,504.0,490.0,490.0,490.0,490.0,498.0,498.0,502.0,502.0,502.0,499.0,573.0,573.0,573.0,573.0,555.0,555.0,555.0,555.0,555.0,555.0,557.0,557.0,557.0,557.0,574.0,574.0,571.0,571.0,571.0,534.0,505.2,501.2,557.3555555555556,539.0,499.0,534.0,59.0,24.0,140.0,539.0,504.0,574.0
0,483.0,490.0,534.0,498.0,498.0,498.0,498.0,498.0,504.0,504.0,504.0,504.0,494.0,494.0,483.0,483.0,483.0,539.0,539.0,539.0,539.0,539.0,539.0,504.0,504.0,504.0,504.0,504.0,490.0,490.0,490.0,490.0,498.0,498.0,502.0,502.0,502.0,499.0,499.0,499.0,499.0,499.0,499.0,555.0,555.0,555.0,555.0,555.0,557.0,557.0,557.0,557.0,574.0,574.0,571.0,571.0,571.0,534.0,534.0,534.0,534.0,534.0,534.0,508.06666666666666,501.44444444444446,562.5333333333333,539.0,499.0,534.0,59.0,24.0,140.0,539.0,504.0,574.0
0,483.0,490.0,474.0,498.0,498.0,504.0,504.0,504.0,504.0,494.0,494.0,483.0,483.0,483.0,539.0,539.0,539.0,539.0,539.0,539.0,521.0,501.0,501.0,504.0,504.0,490.0,490.0,490.0,490.0,498.0,498.0,502.0,502.0,502.0,499.0,499.0,499.0,499.0,499.0,499.0,492.0,509.0,509.0,555.0,555.0,557.0,557.0,557.0,557.0,574.0,574.0,571.0,571.0,571.0,534.0,534.0,534.0,534.0,534.0,534.0,490.0,474.0,474.0,509.2,501.44444444444446,562.2444444444444,501.0,509.0,474.0,59.0,22.0,146.0,539.0,509.0,574.0
0,483.0,490.0,461.0,504.0,504.0,494.0,494.0,483.0,483.0,483.0,539.0,539.0,539.0,539.0,539.0,539.0,521.0,501.0,501.0,501.0,501.0,515.0,515.0,490.0,490.0,498.0,498.0,502.0,502.0,502.0,499.0,499.0,499.0,499.0,499.0,499.0,492.0,509.0,509.0,509.0,509.0,501.0,501.0,557.0,557.0,574.0,574.0,571.0,571.0,571.0,534.0,534.0,534.0,534.0,534.0,534.0,490.0,474.0,474.0,474.0,474.0,461.0,461.0,510.55555555555554,501.64444444444445,556.8666666666667,515.0,501.0,461.0,56.0,22.0,159.0,539.0,509.0,574.0
0,483.0,492.0,461.0,483.0,483.0,483.0,539.0,539.0,539.0,539.0,539.0,539.0,521.0,501.0,501.0,501.0,501.0,515.0,515.0,515.0,515.0,515.0,515.0,502.0,502.0,502.0,499.0,499.0,499.0,499.0,499.0,499.0,492.0,509.0,509.0,509.0,509.0,501.0,501.0,501.0,501.0,501.0,501.0,571.0,571.0,571.0,534.0,534.0,534.0,534.0,534.0,534.0,490.0,474.0,474.0,474.0,474.0,461.0,461.0,461.0,461.0,461.0,461.0,511.0888888888889,501.06666666666666,546.7555555555556,515.0,501.0,461.0,56.0,22.0,159.0,539.0,509.0,571.0
0,492.0,492.0,410.0,539.0,539.0,539.0,539.0,539.0,521.0,501.0,501.0,501.0,501.0,515.0,515.0,515.0,515.0,515.0,515.0,497.0,497.0,492.0,492.0,499.0,499.0,499.0,499.0,499.0,492.0,509.0,509.0,509.0,509.0,501.0,501.0,501.0,501.0,501.0,501.0,518.0,518.0,524.0,524.0,534.0,534.0,534.0,534.0,534.0,490.0,474.0,474.0,474.0,474.0,461.0,461.0,461.0,461.0,461.0,461.0,443.0,443.0,410.0,410.0,509.1777777777778,502.5777777777778,530.3333333333334,492.0,524.0,410.0,56.0,34.0,210.0,539.0,524.0,534.0
0,492.0,492.0,410.0,539.0,539.0,521.0,501.0,501.0,501.0,501.0,515.0,515.0,515.0,515.0,515.0,515.0,497.0,497.0,492.0,492.0,492.0,508.0,508.0,499.0,499.0,492.0,509.0,509.0,509.0,509.0,501.0,501.0,501.0,501.0,501.0,501.0,518.0,518.0,524.0,524.0,524.0,533.0,533.0,534.0,534.0,490.0,474.0,474.0,474.0,474.0,461.0,461.0,461.0,461.0,461.0,461.0,443.0,443.0,410.0,410.0,410.0,416.0,416.0,507.8222222222222,504.0,516.6888888888889,508.0,533.0,416.0,56.0,43.0,208.0,539.0,533.0,534.0
0,492.0,501.0,410.0,501.0,501.0,501.0,515.0,515.0,515.0,515.0,515.0,515.0,497.0,497.0,492.0,492.0,492.0,508.0,508.0,508.0,508.0,508.0,508.0,509.0,509.0,509.0,501.0,501.0,501.0,501.0,501.0,501.0,518.0,518.0,524.0,524.0,524.0,533.0,533.0,533.0,533.0,532.0,532.0,474.0,474.0,474.0,461.0,461.0,461.0,461.0,461.0,461.0,443.0,443.0,410.0,410.0,410.0,416.0,416.0,416.0,416.0,474.0,474.0,507.1111111111111,506.7111111111111,503.31111111111113,508.0,532.0,474.0,56.0,43.0,164.0,515.0,533.0,474.0
0,492.0,501.0,410.0,515.0,515.0,515.0,515.0,515.0,497.0,497.0,492.0,492.0,492.0,508.0,508.0,508.0,508.0,508.0,508.0,508.0,508.0,503.0,503.0,501.0,501.0,501.0,501.0,501.0,518.0,518.0,524.0,524.0,524.0,533.0,533.0,533.0,533.0,532.0,532.0,532.0,532.0,520.0,520.0,461.0,461.0,461.0,461.0,461.0,443.0,443.0,410.0,410.0,410.0,416.0,416.0,416.0,416.0,474.0,474.0,474.0,474.0,550.0,550.0,507.4222222222222,509.2,498.68888888888887,503.0,520.0,550.0,56.0,43.0,164.0,515.0,533.0,550.0
0,492.0,501.0,410.0,515.0,515.0,497.0,497.0,492.0,492.0,492.0,508.0,508.0,508.0,508.0,508.0,508.0,508.0,508.0,503.0,503.0,503.0,504.0,504.0,501.0,501.0,518.0,518.0,524.0,524.0,524.0,533.0,533.0,533.0,533.0,532.0,532.0,532.0,532.0,520.0,520.0,520.0,519.0,519.0,461.0,461.0,443.0,443.0,410.0,410.0,410.0,416.0,416.0,416.0,416.0,474.0,474.0,474.0,474.0,550.0,550.0,550.0,564.0,564.0,507.8,510.22222222222223,498.97777777777776,504.0,519.0,564.0,56.0,43.0,164.0,515.0,533.0,564.0
0,492.0,518.0,410.0,497.0,492.0,492.0,492.0,508.0,508.0,508.0,508.0,508.0,508.0,508.0,508.0,503.0,503.0,503.0,504.0,504.0,504.0,524.0,524.0,518.0,524.0,524.0,524.0,533.0,533.0,533.0,533.0,532.0,532.0,532.0,532.0,520.0,520.0,520.0,519.0,519.0,519.0,524.0,524.0,443.0,410.0,410.0,410.0,416.0,416.0,416.0,416.0,474.0,474.0,474.0,474.0,550.0,550.0,550.0,564.0,564.0,564.0,513.0,513.0,508.8222222222222,512.0666666666667,497.22222222222223,524.0,524.0,513.0,56.0,43.0,164.0,524.0,533.0,564.0
0,476.0,519.0,410.0,492.0,508.0,508.0,508.0,508.0,508.0,508.0,508.0,508.0,503.0,503.0,503.0,504.0,504.0,504.0,524.0,524.0,524.0,476.0,476.0,524.0,533.0,533.0,533.0,533.0,532.0,532.0,532.0,532.0,520.0,520.0,520.0,519.0,519.0,519.0,524.0,524.0,524.0,520.0,520.0,410.0,416.0,416.0,416.0,416.0,474.0,474.0,474.0,474.0,550.0,550.0,550.0,564.0,564.0,564.0,513.0,513.0,513.0,493.0,493.0,508.24444444444447,513.9777777777778,493.02222222222224,476.0,520.0,493.0,63.0,41.0,164.0,524.0,533.0,564.0
0,476.0,519.0,416.0,508.0,508.0,508.0,508.0,508.0,503.0,503.0,503.0,504.0,504.0,504.0,524.0,524.0,524.0,476.0,476.0,476.0,476.0,507.0,507.0,533.0,532.0,532.0,532.0,532.0,520.0,520.0,520.0,519.0,519.0,519.0,524.0,524.0,524.0,520.0,520.0,520.0,520.0,520.0,520.0,416.0,474.0,474.0,474.0,474.0,550.0,550.0,550.0,564.0,564.0,564.0,513.0,513.0,513.0,493.0,493.0,493.0,493.0,510.0,510.0,508.75555555555553,515.6666666666666,486.77777777777777,507.0,520.0,510.0,63.0,41.0,154.0,524.0,533.0,564.0
0,476.0,519.0,474.0,508.0,503.0,503.0,503.0,504.0,504.0,504.0,524.0,524.0,524.0,476.0,476.0,476.0,476.0,507.0,507.0,507.0,507.0,510.0,510.0,532.0,520.0,520.0,520.0,519.0,519.0,519.0,524.0,524.0,524.0,520.0,520.0,520.0,520.0,520.0,520.0,520.0,520.0,520.0,520.0,474.0,550.0,550.0,550.0,564.0,564.0,564.0,513.0,513.0,513.0,493.0,493.0,493.0,493.0,510.0,510.0,510.0,510.0,552.0,552.0,506.0444444444444,517.5333333333333,486.5111111111111,510.0,520.0,552.0,63.0,41.0,154.0,524.0,532.0,564.0
0,476.0,511.0,493.0,504.0,504.0,504.0,524.0,524.0,524.0,476.0,476.0,476.0,476.0,507.0,507.0,507.0,507.0,510.0,510.0,510.0,510.0,527.0,527.0,519.0,519.0,519.0,524.0,524.0,524.0,520.0,520.0,520.0,520.0,520.0,520.0,520.0,520.0,520.0,520.0,520.0,520.0,511.0,511.0,564.0,564.0,564.0,513.0,513.0,513.0,493.0,493.0,493.0,493.0,510.0,510.0,510.0,510.0,552.0,552.0,552.0,552.0,570.0,570.0,505.46666666666664,518.9333333333333,491.22222222222223,527.0,511.0,570.0,51.0,32.0,160.0,527.0,524.0,570.0
0,476.0,509.0,493.0,524.0,524.0,476.0,476.0,476.0,476.0,507.0,507.0,507.0,507.0,510.0,510.0,510.0,510.0,527.0,527.0,527.0,527.0,508.0,508.0,524.0,524.0,520.0,520.0,520.0,520.0,520.0,520.0,520.0,520.0,520.0,520.0,520.0,520.0,511.0,511.0,511.0,511.0,509.0,509.0,513.0,513.0,493.0,493.0,493.0,493.0,510.0,510.0,510.0,510.0,552.0,552.0,552.0,552.0,570.0,570.0,570.0,570.0,542.0,542.0,506.6222222222222,519.2,498.8,508.0,509.0,542.0,51.0,32.0,160.0,527.0,524.0,570.0
0,476.0,509.0,493.0,476.0,476.0,507.0,507.0,507.0,507.0,510.0,510.0,510.0,510.0,527.0,527.0,527.0,527.0,508.0,508.0,508.0,508.0,508.0,508.0,520.0,520.0,520.0,520.0,520.0,520.0,520.0,520.0,520.0,520.0,511.0,511.0,511.0,511.0,509.0,509.0,509.0,509.0,515.0,515.0,493.0,493.0,510.0,510.0,510.0,510.0,552.0,552.0,552.0,552.0,570.0,570.0,570.0,570.0,542.0,542.0,542.0,542.0,517.0,517.0,506.0,520.1777777777778,504.8888888888889,508.0,515.0,517.0,51.0,32.0,160.0,527.0,520.0,570.0
0,499.0,503.0,508.0,507.0,507.0,507.0,510.0,510.0,510.0,510.0,527.0,527.0,527.0,527.0,508.0,508.0,508.0,508.0,508.0,508.0,508.0,499.0,499.0,520.0,520.0,520.0,520.0,520.0,520.0,520.0,511.0,511.0,511.0,511.0,509.0,509.0,509.0,509.0,515.0,515.0,515.0,503.0,503.0,510.0,510.0,510.0,552.0,552.0,552.0,552.0,570.0,570.0,570.0,570.0,542.0,542.0,542.0,542.0,517.0,517.0,517.0,508.0,508.0,505.93333333333334,519.8222222222222,509.02222222222224,499.0,503.0,508.0,51.0,30.0,160.0,527.0,520.0,570.0
0,499.0,503.0,504.0,510.0,510.0,510.0,527.0,527.0,527.0,527.0,508.0,508.0,508.0,508.0,508.0,508.0,508.0,499.0,499.0,499.0,499.0,499.0,503.0,520.0,520.0,520.0,511.0,511.0,511.0,511.0,509.0,509.0,509.0,509.0,515.0,515.0,515.0,503.0,503.0,503.0,503.0,503.0,506.0,552.0,552.0,552.0,570.0,570.0,570.0,570.0,542.0,542.0,542.0,542.0,517.0,517.0,517.0,508.0,508.0,508.0,508.0,508.0,504.0,506.2888888888889,517.8222222222222,517.5111111111111,503.0,506.0,504.0,51.0,30.0,154.0,527.0,520.0,570.0
0,494.0,503.0,475.0,527.0,527.0,527.0,508.0,508.0,508.0,508.0,508.0,508.0,508.0,499.0,499.0,499.0,499.0,499.0,503.0,503.0,503.0,503.0,494.0,511.0,511.0,511.0,509.0,509.0,509.0,509.0,515.0,515.0,515.0,503.0,503.0,503.0,503.0,503.0,506.0,506.0,506.0,506.0,514.0,570.0,570.0,570.0,542.0,542.0,542.0,542.0,517.0,517.0,517.0,508.0,508.0,508.0,508.0,508.0,504.0,504.0,504.0,504.0,475.0,505.64444444444445,515.6222222222223,523.4,494.0,514.0,475.0,51.0,29.0,96.0,527.0,515.0,570.0
0,494.0,503.0,438.0,508.0,508.0,508.0,508.0,508.0,499.0,499.0,499.0,499.0,499.0,503.0,503.0,503.0,503.0,494.0,494.0,494.0,494.0,494.0,502.0,509.0,509.0,515.0,515.0,515.0,503.0,503.0,503.0,503.0,503.0,506.0,506.0,506.0,506.0,514.0,514.0,514.0,514.0,514.0,506.0,542.0,542.0,517.0,517.0,517.0,508.0,508.0,508.0,508.0,508.0,504.0,504.0,504.0,504.0,475.0,475.0,475.0,475.0,475.0,438.0,504.4888888888889,513.9777777777778,519.3111111111111,502.0,506.0,438.0,51.0,21.0,132.0,508.0,515.0,542.0
0,494.0,499.0,420.0,508.0,499.0,499.0,499.0,499.0,499.0,503.0,503.0,503.0,503.0,494.0,494.0,494.0,494.0,494.0,502.0,502.0,502.0,540.0,540.0,515.0,503.0,503.0,503.0,503.0,503.0,506.0,506.0,506.0,506.0,514.0,514.0,514.0,514.0,514.0,506.0,506.0,506.0,499.0,499.0,517.0,508.0,508.0,508.0,508.0,508.0,504.0,504.0,504.0,504.0,475.0,475.0,475.0,475.0,475.0,438.0,438.0,438.0,420.0,420.0,506.02222222222224,512.4888888888889,507.6222222222222,540.0,499.0,420.0,64.0,25.0,150.0,540.0,515.0,517.0
0,494.0,494.0,420.0,499.0,499.0,503.0,503.0,503.0,503.0,494.0,494.0,494.0,494.0,494.0,502.0,502.0,502.0,540.0,540.0,540.0,540.0,517.0,517.0,503.0,503.0,506.0,506.0,506.0,506.0,514.0,514.0,514.0,514.0,514.0,506.0,506.0,506.0,499.0,499.0,499.0,499.0,494.0,494.0,508.0,508.0,504.0,504.0,504.0,504.0,475.0,475.0,475.0,475.0,475.0,438.0,438.0,438.0,420.0,420.0,420.0,420.0,424.0,424.0,507.4888888888889,510.1333333333333,499.97777777777776,517.0,494.0,424.0,64.0,26.0,150.0,540.0,514.0,508.0
0,494.0,494.0,420.0,503.0,494.0,494.0,494.0,494.0,494.0,502.0,502.0,502.0,540.0,540.0,540.0,540.0,517.0,517.0,517.0,517.0,517.0,530.0,530.0,506.0,514.0,514.0,514.0,514.0,514.0,506.0,506.0,506.0,499.0,499.0,499.0,499.0,494.0,494.0,494.0,494.0,494.0,504.0,504.0,504.0,475.0,475.0,475.0,475.0,475.0,438.0,438.0,438.0,420.0,420.0,420.0,420.0,424.0,424.0,424.0,424.0,424.0,439.0,439.0,511.24444444444447,507.68888888888887,492.22222222222223,530.0,504.0,439.0,46.0,26.0,150.0,540.0,514.0,504.0
0,494.0,494.0,420.0,494.0,502.0,502.0,502.0,540.0,540.0,540.0,540.0,517.0,517.0,517.0,517.0,517.0,530.0,530.0,530.0,530.0,530.0,530.0,514.0,514.0,506.0,506.0,506.0,499.0,499.0,499.0,499.0,494.0,494.0,494.0,494.0,494.0,504.0,504.0,504.0,504.0,504.0,504.0,504.0,475.0,438.0,438.0,438.0,420.0,420.0,420.0,420.0,424.0,424.0,424.0,424.0,424.0,439.0,439.0,439.0,439.0,439.0,439.0,457.0,513.2444444444444,505.9111111111111,481.93333333333334,514.0,504.0,457.0,46.0,26.0,150.0,540.0,514.0,475.0
0,502.0,494.0,420.0,502.0,540.0,540.0,540.0,540.0,517.0,517.0,517.0,517.0,517.0,530.0,530.0,530.0,530.0,530.0,530.0,514.0,514.0,525.0,525.0,506.0,499.0,499.0,499.0,499.0,494.0,494.0,494.0,494.0,494.0,504.0,504.0,504.0,504.0,504.0,504.0,504.0,504.0,514.0,514.0,438.0,420.0,420.0,420.0,420.0,424.0,424.0,424.0,424.0,424.0,439.0,439.0,439.0,439.0,439.0,439.0,457.0,457.0,470.0,470.0,513.2444444444444,505.68888888888887,475.3777777777778,525.0,514.0,470.0,46.0,21.0,150.0,540.0,514.0,470.0
0,512.0,494.0,420.0,540.0,517.0,517.0,517.0,517.0,517.0,530.0,530.0,530.0,530.0,530.0,530.0,514.0,514.0,525.0,525.0,525.0,525.0,512.0,512.0,499.0,494.0,494.0,494.0,494.0,494.0,504.0,504.0,504.0,504.0,504.0,504.0,504.0,504.0,514.0,514.0,514.0,514.0,517.0,517.0,420.0,424.0,424.0,424.0,424.0,424.0,439.0,439.0,439.0,439.0,439.0,439.0,457.0,457.0,470.0,470.0,470.0,470.0,481.0,481.0,513.3333333333334,506.1777777777778,468.22222222222223,512.0,517.0,481.0,46.0,23.0,122.0,540.0,517.0,481.0
0,512.0,494.0,424.0,517.0,517.0,530.0,530.0,530.0,530.0,530.0,530.0,514.0,514.0,525.0,525.0,525.0,525.0,512.0,512.0,512.0,512.0,514.0,514.0,494.0,494.0,504.0,504.0,504.0,504.0,504.0,504.0,504.0,504.0,514.0,514.0,514.0,514.0,517.0,517.0,517.0,517.0,523.0,523.0,424.0,424.0,439.0,439.0,439.0,439.0,439.0,439.0,457.0,457.0,470.0,470.0,470.0,470.0,481.0,481.0,481.0,481.0,519.0,519.0,513.7777777777778,506.8888888888889,465.6,514.0,523.0,519.0,46.0,29.0,99.0,530.0,523.0,519.0
0,503.0,504.0,439.0,530.0,530.0,530.0,530.0,514.0,514.0,525.0,525.0,525.0,525.0,512.0,512.0,512.0,512.0,514.0,514.0,514.0,514.0,503.0,503.0,504.0,504.0,504.0,504.0,504.0,504.0,514.0,514.0,514.0,514.0,517.0,517.0,517.0,517.0,523.0,523.0,523.0,523.0,526.0,526.0,439.0,439.0,439.0,439.0,457.0,457.0,470.0,470.0,470.0,470.0,481.0,481.0,481.0,481.0,519.0,519.0,519.0,519.0,547.0,547.0,514.4222222222222,508.53333333333336,467.6222222222222,503.0,526.0,547.0,46.0,32.0,127.0,530.0,526.0,547.0
0,503.0,504.0,457.0,514.0,514.0,525.0,525.0,525.0,525.0,512.0,512.0,512.0,512.0,514.0,514.0,514.0,514.0,503.0,503.0,503.0,503.0,520.0,520.0,504.0,504.0,514.0,514.0,514.0,514.0,517.0,517.0,517.0,517.0,523.0,523.0,523.0,523.0,526.0,526.0,526.0,526.0,513.0,513.0,457.0,457.0,470.0,470.0,470.0,470.0,481.0,481.0,481.0,481.0,519.0,519.0,519.0,519.0,547.0,547.0,547.0,547.0,572.0,572.0,515.3555555555556,509.8666666666667,472.3777777777778,520.0,513.0,572.0,46.0,32.0,152.0,525.0,526.0,572.0
0,498.0,513.0,470.0,525.0,525.0,525.0,512.0,512.0,512.0,512.0,514.0,514.0,514.0,514.0,503.0,503.0,503.0,503.0,520.0,520.0,520.0,498.0,498.0,514.0,514.0,514.0,517.0,517.0,517.0,517.0,523.0,523.0,523.0,523.0,526.0,526.0,526.0,526.0,513.0,513.0,513.0,524.0,524.0,470.0,470.0,470.0,481.0,481.0,481.0,481.0,519.0,519.0,519.0,519.0,547.0,547.0,547.0,547.0,572.0,572.0,572.0,591.0,591.0,515.7111111111111,510.64444444444445,478.4,498.0,524.0,591.0,46.0,32.0,171.0,525.0,526.0,591.0
0,498.0,513.0,481.0,512.0,512.0,512.0,514.0,514.0,514.0,514.0,503.0,503.0,503.0,503.0,520.0,520.0,520.0,498.0,498.0,498.0,498.0,508.0,508.0,517.0,517.0,517.0,523.0,523.0,523.0,523.0,526.0,526.0,526.0,526.0,513.0,513.0,513.0,524.0,524.0,524.0,524.0,521.0,521.0,481.0,481.0,481.0,519.0,519.0,519.0,519.0,547.0,547.0,547.0,547.0,572.0,572.0,572.0,591.0,591.0,591.0,591.0,592.0,592.0,516.5111111111111,511.4,488.75555555555553,508.0,521.0,592.0,42.0,32.0,172.0,520.0,526.0,592.0
0,498.0,513.0,519.0,514.0,514.0,514.0,514.0,503.0,503.0,503.0,503.0,520.0,520.0,520.0,498.0,498.0,498.0,498.0,508.0,508.0,508.0,504.0,504.0,523.0,523.0,523.0,523.0,526.0,526.0,526.0,526.0,513.0,513.0,513.0,524.0,524.0,524.0,524.0,521.0,521.0,521.0,525.0,525.0,519.0,519.0,519.0,519.0,547.0,547.0,547.0,547.0,572.0,572.0,572.0,591.0,591.0,591.0,591.0,592.0,592.0,592.0,563.0,563.0,516.7333333333333,512.5777777777778,497.73333333333335,504.0,525.0,563.0,42.0,32.0,172.0,520.0,526.0,592.0
0,498.0,513.0,546.0,503.0,503.0,503.0,503.0,520.0,520.0,520.0,498.0,498.0,498.0,498.0,508.0,508.0,508.0,504.0,504.0,504.0,504.0,513.0,513.0,526.0,526.0,526.0,526.0,513.0,513.0,513.0,524.0,524.0,524.0,524.0,521.0,521.0,521.0,525.0,525.0,525.0,525.0,519.0,519.0,547.0,547.0,547.0,547.0,572.0,572.0,572.0,591.0,591.0,591.0,591.0,592.0,592.0,592.0,563.0,563.0,563.0,563.0,546.0,546.0,513.9333333333333,514.6222222222223,509.68888888888887,513.0,519.0,546.0,32.0,32.0,168.0,520.0,526.0,592.0
0,498.0,513.0,516.0,520.0,520.0,520.0,498.0,498.0,498.0,498.0,508.0,508.0,508.0,504.0,504.0,504.0,504.0,513.0,513.0,513.0,513.0,503.0,503.0,513.0,513.0,513.0,524.0,524.0,524.0,524.0,521.0,521.0,521.0,525.0,525.0,525.0,525.0,519.0,519.0,519.0,519.0,519.0,519.0,572.0,572.0,572.0,591.0,591.0,591.0,591.0,592.0,592.0,592.0,563.0,563.0,563.0,563.0,546.0,546.0,546.0,546.0,516.0,516.0,513.1333333333333,516.8444444444444,519.2,503.0,519.0,516.0,32.0,32.0,168.0,520.0,525.0,592.0
0,498.0,510.0,516.0,498.0,498.0,498.0,508.0,508.0,508.0,504.0,504.0,504.0,504.0,513.0,513.0,513.0,513.0,503.0,503.0,503.0,503.0,524.0,524.0,524.0,524.0,524.0,521.0,521.0,521.0,525.0,525.0,525.0,525.0,519.0,519.0,519.0,519.0,519.0,519.0,519.0,519.0,510.0,510.0,591.0,591.0,591.0,592.0,592.0,592.0,563.0,563.0,563.0,563.0,546.0,546.0,546.0,546.0,516.0,516.0,516.0,516.0,521.0,521.0,511.9555555555556,518.0,526.6,524.0,510.0,521.0,32.0,22.0,153.0,524.0,525.0,592.0
0,503.0,510.0,516.0,508.0,508.0,504.0,504.0,504.0,504.0,513.0,513.0,513.0,513.0,503.0,503.0,503.0,503.0,524.0,524.0,524.0,524.0,524.0,520.0,521.0,521.0,525.0,525.0,525.0,525.0,519.0,519.0,519.0,519.0,519.0,519.0,519.0,519.0,510.0,510.0,510.0,510.0,510.0,513.0,592.0,592.0,563.0,563.0,563.0,563.0,546.0,546.0,546.0,546.0,516.0,516.0,516.0,516.0,521.0,521.0,521.0,521.0,521.0,533.0,511.68888888888887,518.6,533.7555555555556,520.0,513.0,533.0,27.0,22.0,135.0,524.0,525.0,592.0
0,503.0,510.0,516.0,504.0,504.0,513.0,513.0,513.0,513.0,503.0,503.0,503.0,503.0,524.0,524.0,524.0,524.0,524.0,520.0,520.0,520.0,520.0,508.0,525.0,525.0,519.0,519.0,519.0,519.0,519.0,519.0,519.0,519.0,510.0,510.0,510.0,510.0,510.0,513.0,513.0,513.0,513.0,523.0,563.0,563.0,546.0,546.0,546.0,546.0,516.0,516.0,516.0,516.0,521.0,521.0,521.0,521.0,521.0,533.0,533.0,533.0,533.0,529.0,511.22222222222223,518.9555555555555,539.5555555555555,508.0,523.0,529.0,27.0,16.0,122.0,524.0,525.0,563.0
0,500.0,510.0,512.0,513.0,503.0,503.0,503.0,503.0,524.0,524.0,524.0,524.0,524.0,520.0,520.0,520.0,520.0,508.0,508.0,508.0,508.0,500.0,500.0,519.0,519.0,519.0,519.0,519.0,510.0,510.0,510.0,510.0,510.0,513.0,513.0,513.0,513.0,523.0,523.0,523.0,523.0,518.0,518.0,546.0,516.0,516.0,516.0,516.0,521.0,521.0,521.0,521.0,521.0,533.0,533.0,533.0,533.0,529.0,529.0,529.0,529.0,512.0,512.0,510.1333333333333,519.4666666666667,544.3777777777777,500.0,518.0,512.0,26.0,16.0,80.0,524.0,523.0,546.0
0,500.0,510.0,482.0,503.0,524.0,524.0,524.0,524.0,524.0,520.0,520.0,520.0,520.0,508.0,508.0,508.0,508.0,500.0,500.0,500.0,500.0,502.0,502.0,519.0,510.0,510.0,510.0,510.0,510.0,513.0,513.0,513.0,513.0,523.0,523.0,523.0,523.0,518.0,518.0,518.0,518.0,521.0,521.0,516.0,521.0,521.0,521.0,521.0,521.0,533.0,533.0,533.0,533.0,529.0,529.0,529.0,529.0,512.0,512.0,512.0,512.0,482.0,482.0,508.97777777777776,519.1555555555556,542.4222222222222,502.0,521.0,482.0,26.0,16.0,110.0,524.0,523.0,533.0
0,500.0,510.0,479.0,524.0,524.0,524.0,520.0,520.0,520.0,520.0,508.0,508.0,508.0,508.0,500.0,500.0,500.0,500.0,502.0,502.0,502.0,506.0,506.0,510.0,510.0,510.0,513.0,513.0,513.0,513.0,523.0,523.0,523.0,523.0,518.0,518.0,518.0,518.0,521.0,521.0,521.0,514.0,514.0,521.0,521.0,521.0,533.0,533.0,533.0,533.0,529.0,529.0,529.0,529.0,512.0,512.0,512.0,512.0,482.0,482.0,482.0,479.0,479.0,509.0888888888889,518.5111111111111,537.9555555555555,506.0,514.0,479.0,26.0,16.0,113.0,524.0,523.0,533.0
0,492.0,499.0,479.0,520.0,520.0,520.0,508.0,508.0,508.0,508.0,500.0,500.0,500.0,500.0,502.0,502.0,502.0,506.0,506.0,506.0,506.0,492.0,492.0,513.0,513.0,513.0,523.0,523.0,523.0,523.0,518.0,518.0,518.0,518.0,521.0,521.0,521.0,514.0,514.0,514.0,514.0,499.0,499.0,533.0,533.0,533.0,529.0,529.0,529.0,529.0,512.0,512.0,512.0,512.0,482.0,482.0,482.0,479.0,479.0,479.0,479.0,493.0,493.0,507.6,517.6444444444444,530.8666666666667,492.0,499.0,493.0,32.0,26.0,113.0,520.0,523.0,533.0
0,492.0,499.0,479.0,508.0,508.0,508.0,500.0,500.0,500.0,500.0,502.0,502.0,502.0,506.0,506.0,506.0,506.0,492.0,492.0,492.0,492.0,500.0,500.0,523.0,523.0,523.0,518.0,518.0,518.0,518.0,521.0,521.0,521.0,514.0,514.0,514.0,514.0,499.0,499.0,499.0,499.0,510.0,510.0,529.0,529.0,529.0,512.0,512.0,512.0,512.0,482.0,482.0,482.0,479.0,479.0,479.0,479.0,493.0,493.0,493.0,493.0,522.0,522.0,507.4222222222222,515.9111111111112,523.4444444444445,500.0,510.0,522.0,32.0,26.0,113.0,508.0,523.0,529.0
0,492.0,499.0,479.0,500.0,500.0,500.0,502.0,502.0,502.0,506.0,506.0,506.0,506.0,492.0,492.0,492.0,492.0,500.0,500.0,500.0,500.0,502.0,502.0,518.0,518.0,518.0,521.0,521.0,521.0,514.0,514.0,514.0,514.0,499.0,499.0,499.0,499.0,510.0,510.0,510.0,510.0,502.0,502.0,512.0,512.0,512.0,482.0,482.0,482.0,479.0,479.0,479.0,479.0,493.0,493.0,493.0,493.0,522.0,522.0,522.0,522.0,530.0,530.0,506.8888888888889,514.4888888888889,518.2222222222222,502.0,502.0,530.0,32.0,26.0,84.0,506.0,521.0,530.0
0,492.0,499.0,479.0,502.0,502.0,502.0,506.0,506.0,506.0,506.0,492.0,492.0,492.0,492.0,500.0,500.0,500.0,500.0,502.0,502.0,502.0,499.0,499.0,521.0,521.0,521.0,514.0,514.0,514.0,514.0,499.0,499.0,499.0,499.0,510.0,510.0,510.0,510.0,502.0,502.0,502.0,504.0,504.0,482.0,482.0,482.0,479.0,479.0,479.0,479.0,493.0,493.0,493.0,493.0,522.0,522.0,522.0,522.0,530.0,530.0,530.0,504.0,504.0,506.6222222222222,513.0444444444445,514.8666666666667,499.0,504.0,504.0,32.0,24.0,67.0,506.0,521.0,530.0
0,492.0,498.0,467.0,506.0,506.0,506.0,506.0,492.0,492.0,492.0,492.0,500.0,500.0,500.0,500.0,502.0,502.0,502.0,499.0,499.0,499.0,503.0,503.0,514.0,514.0,514.0,514.0,499.0,499.0,499.0,499.0,510.0,510.0,510.0,510.0,502.0,502.0,502.0,504.0,504.0,504.0,498.0,498.0,479.0,479.0,479.0,479.0,493.0,493.0,493.0,493.0,522.0,522.0,522.0,522.0,530.0,530.0,530.0,504.0,504.0,504.0,467.0,467.0,505.8666666666667,511.77777777777777,510.4222222222222,503.0,498.0,467.0,32.0,25.0,79.0,506.0,514.0,530.0
0,492.0,498.0,447.0,506.0,492.0,492.0,492.0,492.0,500.0,500.0,500.0,500.0,502.0,502.0,502.0,499.0,499.0,499.0,503.0,503.0,503.0,511.0,511.0,514.0,499.0,499.0,499.0,499.0,510.0,510.0,510.0,510.0,502.0,502.0,502.0,504.0,504.0,504.0,498.0,498.0,498.0,505.0,505.0,479.0,493.0,493.0,493.0,493.0,522.0,522.0,522.0,522.0,530.0,530.0,530.0,504.0,504.0,504.0,467.0,467.0,467.0,447.0,447.0,506.0,510.68888888888887,505.6,511.0,505.0,447.0,32.0,25.0,86.0,511.0,514.0,530.0
0,492.0,498.0,447.0,492.0,492.0,500.0,500.0,500.0,500.0,502.0,502.0,502.0,499.0,499.0,499.0,503.0,503.0,503.0,511.0,511.0,511.0,521.0,521.0,499.0,499.0,510.0,510.0,510.0,510.0,502.0,502.0,502.0,504.0,504.0,504.0,498.0,498.0,498.0,505.0,505.0,505.0,499.0,499.0,493.0,493.0,522.0,522.0,522.0,522.0,530.0,530.0,530.0,504.0,504.0,504.0,467.0,467.0,467.0,447.0,447.0,447.0,448.0,448.0,506.5111111111111,509.68888888888887,500.93333333333334,521.0,499.0,448.0,32.0,25.0,86.0,521.0,510.0,530.0
0,499.0,498.0,447.0,500.0,500.0,502.0,502.0,502.0,499.0,499.0,499.0,503.0,503.0,503.0,511.0,511.0,511.0,521.0,521.0,521.0,521.0,507.0,507.0,510.0,510.0,502.0,502.0,502.0,504.0,504.0,504.0,498.0,498.0,498.0,505.0,505.0,505.0,499.0,499.0,499.0,499.0,505.0,505.0,522.0,522.0,530.0,530.0,530.0,504.0,504.0,504.0,467.0,467.0,467.0,447.0,447.0,447.0,448.0,448.0,448.0,448.0,469.0,469.0,505.6222222222222,508.97777777777776,495.3777777777778,507.0,505.0,469.0,29.0,25.0,86.0,521.0,510.0,530.0
0,499.0,498.0,447.0,502.0,499.0,499.0,499.0,503.0,503.0,503.0,511.0,511.0,511.0,521.0,521.0,521.0,521.0,507.0,507.0,507.0,507.0,541.0,541.0,502.0,504.0,504.0,504.0,498.0,498.0,498.0,505.0,505.0,505.0,499.0,499.0,499.0,499.0,505.0,505.0,505.0,505.0,508.0,508.0,530.0,504.0,504.0,504.0,467.0,467.0,467.0,447.0,447.0,447.0,448.0,448.0,448.0,448.0,469.0,469.0,469.0,469.0,489.0,489.0,505.97777777777776,508.4,490.5777777777778,541.0,508.0,489.0,49.0,25.0,83.0,541.0,508.0,530.0
0,499.0,498.0,447.0,499.0,503.0,503.0,503.0,511.0,511.0,511.0,521.0,521.0,521.0,521.0,507.0,507.0,507.0,507.0,541.0,541.0,541.0,518.0,518.0,504.0,498.0,498.0,498.0,505.0,505.0,505.0,499.0,499.0,499.0,499.0,505.0,505.0,505.0,505.0,508.0,508.0,508.0,523.0,523.0,504.0,467.0,467.0,467.0,447.0,447.0,447.0,448.0,448.0,448.0,448.0,469.0,469.0,469.0,469.0,489.0,489.0,489.0,503.0,503.0,507.15555555555557,508.06666666666666,488.53333333333336,518.0,523.0,503.0,49.0,25.0,83.0,541.0,523.0,504.0
0,507.0,499.0,447.0,511.0,511.0,511.0,521.0,521.0,521.0,521.0,507.0,507.0,507.0,507.0,541.0,541.0,541.0,518.0,518.0,518.0,518.0,526.0,526.0,505.0,505.0,505.0,499.0,499.0,499.0,499.0,505.0,505.0,505.0,505.0,508.0,508.0,508.0,523.0,523.0,523.0,523.0,517.0,517.0,447.0,447.0,447.0,448.0,448.0,448.0,448.0,469.0,469.0,469.0,469.0,489.0,489.0,489.0,503.0,503.0,503.0,503.0,509.0,509.0,508.93333333333334,508.1333333333333,487.6222222222222,526.0,517.0,509.0,49.0,25.0,83.0,541.0,523.0,509.0
0,507.0,499.0,448.0,521.0,521.0,521.0,507.0,507.0,507.0,507.0,541.0,541.0,541.0,518.0,518.0,518.0,518.0,526.0,526.0,526.0,526.0,513.0,513.0,499.0,499.0,499.0,505.0,505.0,505.0,505.0,508.0,508.0,508.0,523.0,523.0,523.0,523.0,517.0,517.0,517.0,517.0,525.0,525.0,448.0,448.0,448.0,469.0,469.0,469.0,469.0,489.0,489.0,489.0,503.0,503.0,503.0,503.0,509.0,509.0,509.0,509.0,529.0,529.0,510.53333333333336,508.2,490.24444444444447,513.0,525.0,529.0,49.0,27.0,83.0,541.0,525.0,529.0
0,507.0,505.0,469.0,507.0,507.0,507.0,507.0,541.0,541.0,541.0,518.0,518.0,518.0,518.0,526.0,526.0,526.0,526.0,513.0,513.0,513.0,513.0,521.0,505.0,505.0,505.0,505.0,508.0,508.0,508.0,523.0,523.0,523.0,523.0,517.0,517.0,517.0,517.0,525.0,525.0,525.0,525.0,525.0,469.0,469.0,469.0,469.0,489.0,489.0,489.0,503.0,503.0,503.0,503.0,509.0,509.0,509.0,509.0,529.0,529.0,529.0,529.0,549.0,511.1777777777778,508.93333333333334,494.02222222222224,521.0,525.0,549.0,49.0,27.0,102.0,541.0,525.0,549.0
0,513.0,508.0,489.0,541.0,541.0,541.0,518.0,518.0,518.0,518.0,526.0,526.0,526.0,526.0,513.0,513.0,513.0,513.0,521.0,521.0,521.0,513.0,513.0,508.0,508.0,508.0,523.0,523.0,523.0,523.0,517.0,517.0,517.0,517.0,525.0,525.0,525.0,525.0,525.0,525.0,525.0,522.0,522.0,489.0,489.0,489.0,503.0,503.0,503.0,503.0,509.0,509.0,509.0,509.0,529.0,529.0,529.0,529.0,549.0,549.0,549.0,554.0,554.0,513.0888888888888,510.77777777777777,499.53333333333336,513.0,522.0,554.0,49.0,27.0,107.0,541.0,525.0,554.0
0,513.0,516.0,503.0,518.0,518.0,518.0,526.0,526.0,526.0,526.0,513.0,513.0,513.0,513.0,521.0,521.0,521.0,513.0,513.0,513.0,513.0,523.0,523.0,523.0,523.0,523.0,517.0,517.0,517.0,517.0,525.0,525.0,525.0,525.0,525.0,525.0,525.0,522.0,522.0,522.0,522.0,516.0,516.0,503.0,503.0,503.0,509.0,509.0,509.0,509.0,529.0,529.0,529.0,529.0,549.0,549.0,549.0,554.0,554.0,554.0,554.0,544.0,544.0,514.8666666666667,511.8222222222222,502.5777777777778,523.0,516.0,544.0,42.0,27.0,107.0,526.0,525.0,554.0
0,503.0,506.0,509.0,526.0,526.0,526.0,526.0,513.0,513.0,513.0,513.0,521.0,521.0,521.0,513.0,513.0,513.0,513.0,523.0,523.0,523.0,503.0,503.0,517.0,517.0,517.0,517.0,525.0,525.0,525.0,525.0,525.0,525.0,525.0,522.0,522.0,522.0,522.0,516.0,516.0,516.0,506.0,506.0,509.0,509.0,509.0,509.0,529.0,529.0,529.0,529.0,549.0,549.0,549.0,554.0,554.0,554.0,554.0,544.0,544.0,544.0,534.0,534.0,515.4222222222222,512.1333333333333,503.24444444444447,503.0,506.0,534.0,42.0,27.0,107.0,526.0,525.0,554.0
0,503.0,506.0,509.0,526.0,526.0,513.0,513.0,513.0,513.0,521.0,521.0,521.0,513.0,513.0,513.0,513.0,523.0,523.0,523.0,503.0,503.0,503.0,519.0,517.0,517.0,525.0,525.0,525.0,525.0,525.0,525.0,525.0,522.0,522.0,522.0,522.0,516.0,516.0,516.0,506.0,506.0,506.0,516.0,509.0,509.0,529.0,529.0,529.0,529.0,549.0,549.0,549.0,554.0,554.0,554.0,554.0,544.0,544.0,544.0,534.0,534.0,534.0,517.0,515.8888888888889,512.4888888888889,503.6222222222222,519.0,516.0,517.0,42.0,27.0,107.0,526.0,525.0,554.0
0,503.0,504.0,494.0,513.0,521.0,521.0,521.0,513.0,513.0,513.0,513.0,523.0,523.0,523.0,503.0,503.0,503.0,519.0,519.0,519.0,519.0,555.0,555.0,525.0,525.0,525.0,525.0,522.0,522.0,522.0,522.0,516.0,516.0,516.0,506.0,506.0,506.0,516.0,516.0,516.0,516.0,504.0,504.0,529.0,549.0,549.0,549.0,554.0,554.0,554.0,554.0,544.0,544.0,544.0,534.0,534.0,534.0,517.0,517.0,517.0,517.0,494.0,494.0,519.4444444444445,513.6888888888889,506.5111111111111,555.0,504.0,494.0,52.0,26.0,107.0,555.0,525.0,554.0
0,503.0,504.0,493.0,513.0,513.0,513.0,523.0,523.0,523.0,503.0,503.0,503.0,519.0,519.0,519.0,519.0,555.0,555.0,555.0,555.0,518.0,518.0,518.0,522.0,522.0,522.0,516.0,516.0,516.0,506.0,506.0,506.0,516.0,516.0,516.0,516.0,504.0,504.0,504.0,504.0,514.0,514.0,514.0,554.0,554.0,554.0,544.0,544.0,544.0,534.0,534.0,534.0,517.0,517.0,517.0,517.0,494.0,494.0,494.0,494.0,493.0,493.0,493.0,521.4222222222222,514.5111111111111,511.6222222222222,518.0,514.0,493.0,52.0,26.0,106.0,555.0,522.0,554.0
0,500.0,504.0,477.0,523.0,523.0,503.0,503.0,503.0,519.0,519.0,519.0,519.0,555.0,555.0,555.0,555.0,518.0,518.0,518.0,518.0,518.0,500.0,500.0,516.0,516.0,506.0,506.0,506.0,516.0,516.0,516.0,516.0,504.0,504.0,504.0,504.0,514.0,514.0,514.0,514.0,514.0,515.0,515.0,544.0,544.0,534.0,534.0,534.0,517.0,517.0,517.0,517.0,494.0,494.0,494.0,494.0,493.0,493.0,493.0,493.0,493.0,477.0,477.0,520.9777777777778,515.6222222222223,513.9777777777778,500.0,515.0,477.0,55.0,21.0,85.0,555.0,516.0,544.0
0,500.0,504.0,466.0,503.0,519.0,519.0,519.0,519.0,555.0,555.0,555.0,555.0,518.0,518.0,518.0,518.0,518.0,500.0,500.0,500.0,500.0,510.0,510.0,506.0,516.0,516.0,516.0,516.0,504.0,504.0,504.0,504.0,514.0,514.0,514.0,514.0,514.0,515.0,515.0,515.0,515.0,509.0,509.0,534.0,517.0,517.0,517.0,517.0,494.0,494.0,494.0,494.0,493.0,493.0,493.0,493.0,493.0,477.0,477.0,477.0,477.0,466.0,466.0,519.2888888888889,516.1111111111111,513.3111111111111,510.0,509.0,466.0,55.0,21.0,88.0,555.0,516.0,534.0
0,500.0,504.0,466.0,519.0,519.0,555.0,555.0,555.0,555.0,518.0,518.0,518.0,518.0,518.0,500.0,500.0,500.0,500.0,510.0,510.0,510.0,508.0,508.0,516.0,516.0,504.0,504.0,504.0,504.0,514.0,514.0,514.0,514.0,514.0,515.0,515.0,515.0,515.0,509.0,509.0,509.0,510.0,510.0,517.0,517.0,494.0,494.0,494.0,494.0,493.0,493.0,493.0,493.0,493.0,477.0,477.0,477.0,477.0,466.0,466.0,466.0,478.0,478.0,518.1555555555556,515.5555555555555,511.68888888888887,508.0,510.0,478.0,55.0,21.0,88.0,555.0,516.0,517.0
0,500.0,504.0,466.0,555.0,518.0,518.0,518.0,518.0,518.0,500.0,500.0,500.0,500.0,510.0,510.0,510.0,508.0,508.0,508.0,508.0,508.0,513.0,513.0,504.0,514.0,514.0,514.0,514.0,514.0,515.0,515.0,515.0,515.0,509.0,509.0,509.0,510.0,510.0,510.0,510.0,510.0,509.0,509.0,494.0,493.0,493.0,493.0,493.0,493.0,477.0,477.0,477.0,477.0,466.0,466.0,466.0,478.0,478.0,478.0,478.0,478.0,486.0,486.0,516.7333333333333,514.4666666666667,508.8666666666667,513.0,509.0,486.0,55.0,21.0,88.0,555.0,515.0,494.0
0,500.0,509.0,466.0,518.0,500.0,500.0,500.0,500.0,510.0,510.0,510.0,508.0,508.0,508.0,508.0,508.0,513.0,513.0,513.0,513.0,513.0,507.0,507.0,514.0,515.0,515.0,515.0,515.0,509.0,509.0,509.0,510.0,510.0,510.0,510.0,510.0,509.0,509.0,509.0,509.0,509.0,513.0,513.0,493.0,477.0,477.0,477.0,477.0,466.0,466.0,466.0,478.0,478.0,478.0,478.0,478.0,486.0,486.0,486.0,486.0,486.0,502.0,502.0,516.1777777777778,513.0444444444445,505.24444444444447,507.0,513.0,502.0,55.0,21.0,88.0,518.0,515.0,502.0
0,497.0,502.0,466.0,510.0,510.0,510.0,508.0,508.0,508.0,508.0,508.0,513.0,513.0,513.0,513.0,513.0,507.0,507.0,507.0,507.0,507.0,507.0,497.0,509.0,509.0,509.0,510.0,510.0,510.0,510.0,510.0,509.0,509.0,509.0,509.0,509.0,513.0,513.0,513.0,513.0,513.0,513.0,502.0,466.0,466.0,466.0,478.0,478.0,478.0,478.0,478.0,486.0,486.0,486.0,486.0,486.0,502.0,502.0,502.0,502.0,502.0,502.0,517.0,514.7555555555556,511.6,500.1333333333333,497.0,502.0,517.0,58.0,20.0,88.0,513.0,513.0,517.0
0,497.0,502.0,478.0,508.0,508.0,508.0,508.0,513.0,513.0,513.0,513.0,513.0,507.0,507.0,507.0,507.0,507.0,507.0,497.0,497.0,497.0,506.0,506.0,510.0,510.0,510.0,510.0,509.0,509.0,509.0,509.0,509.0,513.0,513.0,513.0,513.0,513.0,513.0,502.0,502.0,502.0,507.0,507.0,478.0,478.0,478.0,478.0,486.0,486.0,486.0,486.0,486.0,502.0,502.0,502.0,502.0,502.0,502.0,517.0,517.0,517.0,532.0,532.0,513.2888888888889,510.31111111111113,497.9555555555556,506.0,507.0,532.0,58.0,14.0,78.0,513.0,513.0,532.0
0,497.0,502.0,486.0,513.0,513.0,513.0,513.0,513.0,507.0,507.0,507.0,507.0,507.0,507.0,497.0,497.0,497.0,506.0,506.0,506.0,506.0,512.0,512.0,509.0,509.0,509.0,509.0,509.0,513.0,513.0,513.0,513.0,513.0,513.0,502.0,502.0,502.0,507.0,507.0,507.0,507.0,515.0,515.0,486.0,486.0,486.0,486.0,486.0,502.0,502.0,502.0,502.0,502.0,502.0,517.0,517.0,517.0,532.0,532.0,532.0,532.0,551.0,551.0,513.3777777777777,510.53333333333336,498.4,512.0,515.0,551.0,58.0,14.0,85.0,513.0,515.0,551.0
0,497.0,502.0,486.0,513.0,513.0,507.0,507.0,507.0,507.0,507.0,507.0,497.0,497.0,497.0,506.0,506.0,506.0,506.0,512.0,512.0,512.0,512.0,509.0,509.0,509.0,513.0,513.0,513.0,513.0,513.0,513.0,502.0,502.0,502.0,507.0,507.0,507.0,507.0,515.0,515.0,515.0,515.0,503.0,486.0,486.0,502.0,502.0,502.0,502.0,502.0,502.0,517.0,517.0,517.0,532.0,532.0,532.0,532.0,551.0,551.0,551.0,551.0,544.0,512.8444444444444,510.2,500.5111111111111,509.0,503.0,544.0,58.0,14.0,85.0,513.0,515.0,551.0
0,493.0,502.0,502.0,507.0,507.0,507.0,507.0,507.0,497.0,497.0,497.0,506.0,506.0,506.0,506.0,512.0,512.0,512.0,512.0,509.0,509.0,493.0,493.0,513.0,513.0,513.0,513.0,513.0,502.0,502.0,502.0,507.0,507.0,507.0,507.0,515.0,515.0,515.0,515.0,503.0,503.0,513.0,513.0,502.0,502.0,502.0,502.0,502.0,517.0,517.0,517.0,532.0,532.0,532.0,532.0,551.0,551.0,551.0,551.0,544.0,544.0,538.0,538.0,509.8666666666667,510.31111111111113,503.06666666666666,493.0,513.0,538.0,62.0,13.0,85.0,512.0,515.0,551.0
0,493.0,502.0,502.0,507.0,497.0,497.0,497.0,506.0,506.0,506.0,506.0,512.0,512.0,512.0,512.0,509.0,509.0,493.0,493.0,493.0,493.0,515.0,515.0,513.0,502.0,502.0,502.0,507.0,507.0,507.0,507.0,515.0,515.0,515.0,515.0,503.0,503.0,513.0,513.0,513.0,513.0,514.0,514.0,502.0,517.0,517.0,517.0,532.0,532.0,532.0,532.0,551.0,551.0,551.0,551.0,544.0,544.0,538.0,538.0,538.0,538.0,520.0,520.0,506.97777777777776,510.7111111111111,506.22222222222223,515.0,514.0,520.0,25.0,13.0,85.0,515.0,515.0,551.0
0,493.0,503.0,513.0,506.0,506.0,506.0,506.0,512.0,512.0,512.0,512.0,509.0,509.0,493.0,493.0,493.0,493.0,515.0,515.0,515.0,515.0,516.0,516.0,507.0,507.0,507.0,507.0,515.0,515.0,515.0,515.0,503.0,503.0,513.0,513.0,513.0,513.0,514.0,514.0,514.0,514.0,514.0,514.0,532.0,532.0,532.0,532.0,551.0,551.0,551.0,551.0,544.0,544.0,538.0,538.0,538.0,538.0,520.0,520.0,520.0,520.0,513.0,513.0,507.15555555555557,510.68888888888887,508.6666666666667,516.0,514.0,513.0,23.0,13.0,85.0,516.0,515.0,551.0
0,493.0,503.0,503.0,506.0,512.0,512.0,512.0,512.0,509.0,509.0,493.0,493.0,493.0,493.0,515.0,515.0,515.0,515.0,516.0,516.0,516.0,549.0,549.0,507.0,515.0,515.0,515.0,515.0,503.0,503.0,513.0,513.0,513.0,513.0,514.0,514.0,514.0,514.0,514.0,514.0,514.0,509.0,509.0,532.0,551.0,551.0,551.0,551.0,544.0,544.0,538.0,538.0,538.0,538.0,520.0,520.0,520.0,520.0,513.0,513.0,513.0,503.0,503.0,509.68888888888887,510.4,510.6222222222222,549.0,509.0,503.0,56.0,13.0,85.0,549.0,515.0,551.0
0,493.0,503.0,501.0,512.0,512.0,509.0,509.0,493.0,493.0,493.0,493.0,515.0,515.0,515.0,515.0,516.0,516.0,516.0,549.0,549.0,549.0,510.0,510.0,515.0,515.0,503.0,503.0,513.0,513.0,513.0,513.0,514.0,514.0,514.0,514.0,514.0,514.0,514.0,509.0,509.0,509.0,518.0,518.0,551.0,551.0,544.0,544.0,538.0,538.0,538.0,538.0,520.0,520.0,520.0,520.0,513.0,513.0,513.0,503.0,503.0,503.0,501.0,501.0,510.55555555555554,510.8,513.0,510.0,518.0,501.0,56.0,16.0,73.0,549.0,518.0,551.0
0,493.0,509.0,488.0,493.0,493.0,493.0,493.0,515.0,515.0,515.0,515.0,516.0,516.0,516.0,549.0,549.0,549.0,510.0,510.0,510.0,510.0,497.0,497.0,513.0,513.0,513.0,513.0,514.0,514.0,514.0,514.0,514.0,514.0,514.0,509.0,509.0,509.0,518.0,518.0,518.0,518.0,527.0,527.0,538.0,538.0,538.0,538.0,520.0,520.0,520.0,520.0,513.0,513.0,513.0,503.0,503.0,503.0,501.0,501.0,501.0,501.0,488.0,488.0,510.15555555555557,511.9111111111111,514.4666666666667,497.0,527.0,488.0,56.0,25.0,73.0,549.0,527.0,538.0
0,497.0,509.0,289.0,515.0,515.0,515.0,515.0,516.0,516.0,516.0,549.0,549.0,549.0,510.0,510.0,510.0,510.0,497.0,497.0,497.0,497.0,508.0,508.0,514.0,514.0,514.0,514.0,514.0,514.0,514.0,509.0,509.0,509.0,518.0,518.0,518.0,518.0,527.0,527.0,527.0,527.0,546.0,546.0,520.0,520.0,520.0,520.0,513.0,513.0,513.0,503.0,503.0,503.0,501.0,501.0,501.0,501.0,488.0,488.0,488.0,488.0,289.0,289.0,509.3333333333333,514.3333333333334,505.97777777777776,508.0,546.0,289.0,56.0,44.0,262.0,549.0,546.0,520.0
0,497.0,509.0,289.0,516.0,516.0,516.0,549.0,549.0,549.0,510.0,510.0,510.0,510.0,497.0,497.0,497.0,497.0,508.0,508.0,508.0,508.0,507.0,507.0,514.0,514.0,514.0,509.0,509.0,509.0,518.0,518.0,518.0,518.0,527.0,527.0,527.0,527.0,546.0,546.0,546.0,546.0,522.0,522.0,513.0,513.0,513.0,503.0,503.0,503.0,501.0,501.0,501.0,501.0,488.0,488.0,488.0,488.0,289.0,289.0,289.0,289.0,406.0,406.0,509.1111111111111,516.3777777777777,492.9555555555556,507.0,522.0,406.0,56.0,44.0,262.0,549.0,546.0,513.0
0,497.0,509.0,289.0,549.0,549.0,549.0,510.0,510.0,510.0,510.0,497.0,497.0,497.0,497.0,508.0,508.0,508.0,508.0,507.0,507.0,507.0,526.0,526.0,509.0,509.0,509.0,518.0,518.0,518.0,518.0,527.0,527.0,527.0,527.0,546.0,546.0,546.0,546.0,522.0,522.0,522.0,513.0,513.0,503.0,503.0,503.0,501.0,501.0,501.0,501.0,488.0,488.0,488.0,488.0,289.0,289.0,289.0,289.0,406.0,406.0,406.0,458.0,458.0,509.9555555555556,516.5777777777778,488.8666666666667,526.0,513.0,458.0,56.0,44.0,262.0,549.0,546.0,503.0
0,495.0,513.0,289.0,510.0,510.0,510.0,497.0,497.0,497.0,497.0,508.0,508.0,508.0,508.0,507.0,507.0,507.0,526.0,526.0,526.0,526.0,495.0,495.0,518.0,518.0,518.0,527.0,527.0,527.0,527.0,546.0,546.0,546.0,546.0,522.0,522.0,522.0,513.0,513.0,513.0,513.0,516.0,516.0,501.0,501.0,501.0,488.0,488.0,488.0,488.0,289.0,289.0,289.0,289.0,406.0,406.0,406.0,458.0,458.0,458.0,458.0,483.0,483.0,510.93333333333334,517.4444444444445,485.06666666666666,495.0,516.0,483.0,56.0,43.0,262.0,526.0,546.0,501.0
0,495.0,513.0,289.0,497.0,497.0,508.0,508.0,508.0,508.0,507.0,507.0,507.0,526.0,526.0,526.0,526.0,495.0,495.0,495.0,495.0,495.0,495.0,511.0,527.0,527.0,546.0,546.0,546.0,546.0,522.0,522.0,522.0,513.0,513.0,513.0,513.0,516.0,516.0,516.0,516.0,516.0,516.0,517.0,488.0,488.0,289.0,289.0,289.0,289.0,406.0,406.0,406.0,458.0,458.0,458.0,458.0,483.0,483.0,483.0,483.0,483.0,483.0,487.0,509.93333333333334,518.2888888888889,479.2888888888889,511.0,517.0,487.0,56.0,43.0,262.0,526.0,546.0,488.0
0,487.0,513.0,289.0,508.0,508.0,507.0,507.0,507.0,526.0,526.0,526.0,526.0,495.0,495.0,495.0,495.0,495.0,495.0,511.0,511.0,511.0,487.0,487.0,546.0,546.0,522.0,522.0,522.0,513.0,513.0,513.0,513.0,516.0,516.0,516.0,516.0,516.0,516.0,517.0,517.0,517.0,521.0,521.0,289.0,289.0,406.0,406.0,406.0,458.0,458.0,458.0,458.0,483.0,483.0,483.0,483.0,483.0,483.0,487.0,487.0,487.0,489.0,489.0,508.84444444444443,518.9111111111112,473.84444444444443,487.0,521.0,489.0,62.0,43.0,255.0,526.0,546.0,489.0
0,487.0,507.0,406.0,507.0,507.0,526.0,526.0,526.0,526.0,495.0,495.0,495.0,495.0,495.0,495.0,511.0,511.0,511.0,487.0,487.0,487.0,514.0,514.0,522.0,522.0,513.0,513.0,513.0,513.0,516.0,516.0,516.0,516.0,516.0,516.0,517.0,517.0,517.0,521.0,521.0,521.0,507.0,507.0,406.0,406.0,458.0,458.0,458.0,458.0,483.0,483.0,483.0,483.0,483.0,483.0,487.0,487.0,487.0,489.0,489.0,489.0,517.0,517.0,509.2888888888889,519.0444444444445,471.68888888888887,514.0,507.0,517.0,62.0,39.0,249.0,526.0,522.0,517.0
0,487.0,507.0,458.0,526.0,526.0,526.0,495.0,495.0,495.0,495.0,495.0,495.0,511.0,511.0,511.0,487.0,487.0,487.0,514.0,514.0,514.0,504.0,504.0,513.0,513.0,513.0,516.0,516.0,516.0,516.0,516.0,516.0,517.0,517.0,517.0,521.0,521.0,521.0,507.0,507.0,507.0,512.0,512.0,458.0,458.0,458.0,483.0,483.0,483.0,483.0,483.0,483.0,487.0,487.0,487.0,489.0,489.0,489.0,517.0,517.0,517.0,578.0,578.0,509.75555555555553,518.8444444444444,473.4,504.0,512.0,578.0,62.0,39.0,289.0,526.0,521.0,578.0
0,487.0,507.0,483.0,495.0,495.0,495.0,495.0,495.0,511.0,511.0,511.0,487.0,487.0,487.0,514.0,514.0,514.0,504.0,504.0,504.0,504.0,545.0,545.0,516.0,516.0,516.0,516.0,516.0,517.0,517.0,517.0,521.0,521.0,521.0,507.0,507.0,507.0,512.0,512.0,512.0,512.0,508.0,508.0,483.0,483.0,483.0,483.0,483.0,487.0,487.0,487.0,489.0,489.0,489.0,517.0,517.0,517.0,578.0,578.0,578.0,578.0,622.0,622.0,510.5777777777778,518.4888888888889,480.6666666666667,545.0,508.0,622.0,62.0,39.0,333.0,545.0,521.0,622.0
0,487.0,502.0,483.0,495.0,511.0,511.0,511.0,487.0,487.0,487.0,514.0,514.0,514.0,504.0,504.0,504.0,504.0,545.0,545.0,545.0,545.0,500.0,500.0,516.0,517.0,517.0,517.0,521.0,521.0,521.0,507.0,507.0,507.0,512.0,512.0,512.0,512.0,508.0,508.0,508.0,508.0,502.0,502.0,483.0,487.0,487.0,487.0,489.0,489.0,489.0,517.0,517.0,517.0,578.0,578.0,578.0,578.0,622.0,622.0,622.0,622.0,593.0,593.0,509.68888888888887,517.9111111111112,489.5111111111111,500.0,502.0,593.0,62.0,44.0,333.0,545.0,521.0,622.0
0,487.0,502.0,489.0,487.0,487.0,487.0,514.0,514.0,514.0,504.0,504.0,504.0,504.0,545.0,545.0,545.0,545.0,500.0,500.0,500.0,500.0,510.0,510.0,521.0,521.0,521.0,507.0,507.0,507.0,512.0,512.0,512.0,512.0,508.0,508.0,508.0,508.0,502.0,502.0,502.0,502.0,510.0,510.0,489.0,489.0,489.0,517.0,517.0,517.0,578.0,578.0,578.0,578.0,622.0,622.0,622.0,622.0,593.0,593.0,593.0,593.0,527.0,527.0,508.3777777777778,517.0444444444445,494.7111111111111,510.0,510.0,527.0,58.0,44.0,333.0,545.0,521.0,622.0
0,500.0,502.0,492.0,514.0,514.0,504.0,504.0,504.0,504.0,545.0,545.0,545.0,545.0,500.0,500.0,500.0,500.0,510.0,510.0,510.0,510.0,508.0,508.0,507.0,507.0,512.0,512.0,512.0,512.0,508.0,508.0,508.0,508.0,502.0,502.0,502.0,502.0,510.0,510.0,510.0,510.0,503.0,503.0,517.0,517.0,578.0,578.0,578.0,578.0,622.0,622.0,622.0,622.0,593.0,593.0,593.0,593.0,527.0,527.0,527.0,527.0,492.0,492.0,509.15555555555557,515.4222222222222,496.3333333333333,508.0,503.0,492.0,58.0,44.0,333.0,545.0,512.0,622.0
0,500.0,502.0,492.0,504.0,504.0,545.0,545.0,545.0,545.0,500.0,500.0,500.0,500.0,510.0,510.0,510.0,510.0,508.0,508.0,508.0,508.0,508.0,517.0,512.0,512.0,508.0,508.0,508.0,508.0,502.0,502.0,502.0,502.0,510.0,510.0,510.0,510.0,503.0,503.0,503.0,503.0,503.0,519.0,578.0,578.0,622.0,622.0,622.0,622.0,593.0,593.0,593.0,593.0,527.0,527.0,527.0,527.0,492.0,492.0,492.0,492.0,492.0,501.0,509.6,512.3777777777777,510.15555555555557,517.0,519.0,501.0,58.0,44.0,333.0,545.0,519.0,622.0
0,489.0,496.0,492.0,545.0,545.0,545.0,500.0,500.0,500.0,500.0,510.0,510.0,510.0,510.0,508.0,508.0,508.0,508.0,508.0,517.0,517.0,489.0,489.0,508.0,508.0,508.0,502.0,502.0,502.0,502.0,510.0,510.0,510.0,510.0,503.0,503.0,503.0,503.0,503.0,519.0,519.0,496.0,496.0,622.0,622.0,622.0,593.0,593.0,593.0,593.0,527.0,527.0,527.0,527.0,492.0,492.0,492.0,492.0,492.0,501.0,501.0,540.0,540.0,509.0,510.6222222222222,520.8222222222222,489.0,496.0,540.0,58.0,26.0,216.0,545.0,519.0,622.0
0,489.0,477.0,492.0,545.0,500.0,500.0,500.0,500.0,510.0,510.0,510.0,510.0,508.0,508.0,508.0,508.0,508.0,517.0,517.0,489.0,489.0,489.0,512.0,508.0,502.0,502.0,502.0,502.0,510.0,510.0,510.0,510.0,503.0,503.0,503.0,503.0,503.0,519.0,519.0,496.0,496.0,496.0,477.0,622.0,593.0,593.0,593.0,593.0,527.0,527.0,527.0,527.0,492.0,492.0,492.0,492.0,492.0,501.0,501.0,540.0,540.0,540.0,564.0,508.2888888888889,509.24444444444447,526.1555555555556,512.0,477.0,564.0,58.0,44.0,164.0,545.0,519.0,622.0
0,489.0,477.0,492.0,510.0,510.0,510.0,510.0,508.0,508.0,508.0,508.0,508.0,517.0,517.0,489.0,489.0,489.0,512.0,512.0,512.0,512.0,511.0,511.0,510.0,510.0,510.0,510.0,503.0,503.0,503.0,503.0,503.0,519.0,519.0,496.0,496.0,496.0,477.0,477.0,477.0,477.0,498.0,498.0,527.0,527.0,527.0,527.0,492.0,492.0,492.0,492.0,492.0,501.0,501.0,540.0,540.0,540.0,564.0,564.0,564.0,564.0,559.0,559.0,508.06666666666666,506.0444444444444,536.6,511.0,498.0,559.0,58.0,44.0,139.0,517.0,519.0,564.0
0,489.0,477.0,492.0,508.0,508.0,508.0,508.0,508.0,517.0,517.0,489.0,489.0,489.0,512.0,512.0,512.0,512.0,511.0,511.0,511.0,511.0,506.0,506.0,503.0,503.0,503.0,503.0,503.0,519.0,519.0,496.0,496.0,496.0,477.0,477.0,477.0,477.0,498.0,498.0,498.0,498.0,500.0,500.0,492.0,492.0,492.0,492.0,492.0,501.0,501.0,540.0,540.0,540.0,564.0,564.0,564.0,564.0,559.0,559.0,559.0,559.0,525.0,525.0,509.26666666666665,504.53333333333336,541.8444444444444,506.0,500.0,525.0,58.0,44.0,135.0,517.0,519.0,564.0
0,489.0,477.0,492.0,508.0,508.0,517.0,517.0,489.0,489.0,489.0,512.0,512.0,512.0,512.0,511.0,511.0,511.0,511.0,506.0,506.0,506.0,506.0,527.0,503.0,503.0,519.0,519.0,496.0,496.0,496.0,477.0,477.0,477.0,477.0,498.0,498.0,498.0,498.0,500.0,500.0,500.0,500.0,504.0,492.0,492.0,501.0,501.0,540.0,540.0,540.0,564.0,564.0,564.0,564.0,559.0,559.0,559.0,559.0,525.0,525.0,525.0,525.0,503.0,509.4,503.4888888888889,543.8888888888889,527.0,504.0,503.0,58.0,44.0,133.0,527.0,519.0,564.0
0,489.0,477.0,479.0,517.0,489.0,489.0,489.0,512.0,512.0,512.0,512.0,511.0,511.0,511.0,511.0,506.0,506.0,506.0,506.0,527.0,527.0,509.0,509.0,519.0,496.0,496.0,496.0,477.0,477.0,477.0,477.0,498.0,498.0,498.0,498.0,500.0,500.0,500.0,500.0,504.0,504.0,518.0,518.0,501.0,540.0,540.0,540.0,564.0,564.0,564.0,564.0,559.0,559.0,559.0,559.0,525.0,525.0,525.0,525.0,503.0,503.0,479.0,479.0,511.26666666666665,502.97777777777776,543.7555555555556,509.0,518.0,479.0,56.0,42.0,143.0,527.0,519.0,564.0
0,489.0,477.0,447.0,489.0,512.0,512.0,512.0,512.0,511.0,511.0,511.0,511.0,506.0,506.0,506.0,506.0,527.0,527.0,509.0,509.0,509.0,506.0,506.0,496.0,477.0,477.0,477.0,477.0,498.0,498.0,498.0,498.0,500.0,500.0,500.0,500.0,504.0,504.0,518.0,518.0,518.0,523.0,523.0,540.0,564.0,564.0,564.0,564.0,559.0,559.0,559.0,559.0,525.0,525.0,525.0,525.0,503.0,503.0,479.0,479.0,479.0,447.0,447.0,510.8,503.93333333333334,539.8,506.0,523.0,447.0,56.0,46.0,175.0,527.0,523.0,564.0
0,506.0,477.0,447.0,512.0,511.0,511.0,511.0,511.0,506.0,506.0,506.0,506.0,527.0,527.0,509.0,509.0,509.0,506.0,506.0,506.0,506.0,506.0,581.0,477.0,498.0,498.0,498.0,498.0,500.0,500.0,500.0,500.0,504.0,504.0,518.0,518.0,518.0,523.0,523.0,523.0,523.0,523.0,522.0,564.0,559.0,559.0,559.0,559.0,525.0,525.0,525.0,525.0,503.0,503.0,479.0,479.0,479.0,447.0,447.0,447.0,447.0,447.0,449.0,510.97777777777776,504.9111111111111,528.1555555555556,506.0,523.0,447.0,56.0,46.0,175.0,527.0,523.0,564.0
0,506.0,500.0,447.0,506.0,506.0,506.0,527.0,527.0,509.0,509.0,509.0,506.0,506.0,506.0,506.0,506.0,506.0,581.0,581.0,581.0,581.0,581.0,585.0,500.0,500.0,500.0,504.0,504.0,518.0,518.0,518.0,523.0,523.0,523.0,523.0,523.0,523.0,522.0,522.0,522.0,522.0,522.0,525.0,525.0,525.0,525.0,503.0,503.0,479.0,479.0,479.0,447.0,447.0,447.0,447.0,447.0,447.0,449.0,449.0,449.0,449.0,449.0,482.0,517.8666666666667,507.1111111111111,507.1111111111111,585.0,525.0,482.0,96.0,48.0,146.0,585.0,525.0,525.0
0,506.0,504.0,447.0,527.0,527.0,509.0,509.0,509.0,506.0,506.0,506.0,506.0,506.0,506.0,581.0,581.0,581.0,581.0,581.0,585.0,585.0,585.0,585.0,504.0,504.0,518.0,518.0,518.0,523.0,523.0,523.0,523.0,523.0,523.0,522.0,522.0,522.0,522.0,522.0,525.0,525.0,525.0,525.0,503.0,503.0,479.0,479.0,479.0,447.0,447.0,447.0,447.0,447.0,447.0,449.0,449.0,449.0,449.0,449.0,482.0,482.0,482.0,482.0,523.3111111111111,508.46666666666664,501.1777777777778,585.0,525.0,482.0,96.0,48.0,117.0,585.0,525.0,503.0
0,451.0,522.0,447.0,506.0,506.0,506.0,506.0,506.0,506.0,581.0,581.0,581.0,581.0,581.0,585.0,585.0,585.0,585.0,451.0,451.0,451.0,498.0,498.0,523.0,523.0,523.0,523.0,523.0,523.0,522.0,522.0,522.0,522.0,522.0,525.0,525.0,525.0,525.0,528.0,528.0,528.0,529.0,529.0,447.0,447.0,447.0,447.0,447.0,447.0,449.0,449.0,449.0,449.0,449.0,482.0,482.0,482.0,482.0,501.0,501.0,501.0,515.0,515.0,518.9333333333333,510.8222222222222,500.46666666666664,498.0,529.0,515.0,134.0,52.0,117.0,585.0,529.0,515.0
0,451.0,522.0,447.0,506.0,506.0,581.0,581.0,581.0,581.0,581.0,585.0,585.0,585.0,585.0,451.0,451.0,451.0,498.0,498.0,498.0,498.0,527.0,527.0,523.0,523.0,522.0,522.0,522.0,522.0,522.0,525.0,525.0,525.0,525.0,528.0,528.0,528.0,529.0,529.0,529.0,529.0,529.0,529.0,447.0,447.0,449.0,449.0,449.0,449.0,449.0,482.0,482.0,482.0,482.0,501.0,501.0,501.0,515.0,515.0,515.0,515.0,505.0,505.0,519.1333333333333,512.7777777777778,501.8666666666667,527.0,529.0,505.0,134.0,52.0,117.0,585.0,529.0,515.0
0,451.0,522.0,449.0,581.0,581.0,581.0,581.0,585.0,585.0,585.0,585.0,451.0,451.0,451.0,498.0,498.0,498.0,498.0,527.0,527.0,527.0,486.0,486.0,522.0,522.0,522.0,522.0,525.0,525.0,525.0,525.0,528.0,528.0,528.0,529.0,529.0,529.0,529.0,529.0,529.0,529.0,525.0,525.0,449.0,449.0,449.0,449.0,482.0,482.0,482.0,482.0,501.0,501.0,501.0,515.0,515.0,515.0,515.0,505.0,505.0,505.0,484.0,484.0,519.2222222222222,514.2888888888889,499.46666666666664,486.0,525.0,484.0,134.0,52.0,117.0,585.0,529.0,515.0
0,451.0,522.0,449.0,581.0,585.0,585.0,585.0,585.0,451.0,451.0,451.0,498.0,498.0,498.0,498.0,527.0,527.0,527.0,486.0,486.0,486.0,517.0,517.0,522.0,525.0,525.0,525.0,525.0,528.0,528.0,528.0,529.0,529.0,529.0,529.0,529.0,529.0,529.0,525.0,525.0,525.0,526.0,526.0,449.0,482.0,482.0,482.0,482.0,501.0,501.0,501.0,515.0,515.0,515.0,515.0,505.0,505.0,505.0,484.0,484.0,484.0,471.0,471.0,519.3777777777777,517.1111111111111,494.0888888888889,517.0,526.0,471.0,134.0,52.0,117.0,585.0,529.0,515.0
0,451.0,512.0,471.0,585.0,585.0,451.0,451.0,451.0,498.0,498.0,498.0,498.0,527.0,527.0,527.0,486.0,486.0,486.0,517.0,517.0,517.0,513.0,513.0,525.0,525.0,528.0,528.0,528.0,529.0,529.0,529.0,529.0,529.0,529.0,529.0,525.0,525.0,525.0,526.0,526.0,526.0,512.0,512.0,482.0,482.0,501.0,501.0,501.0,515.0,515.0,515.0,515.0,505.0,505.0,505.0,484.0,484.0,484.0,471.0,471.0,471.0,486.0,486.0,519.5555555555555,519.2888888888889,488.6666666666667,513.0,512.0,486.0,134.0,31.0,112.0,585.0,529.0,515.0
0,451.0,512.0,471.0,451.0,498.0,498.0,498.0,498.0,527.0,527.0,527.0,486.0,486.0,486.0,517.0,517.0,517.0,513.0,513.0,513.0,513.0,513.0,499.0,528.0,529.0,529.0,529.0,529.0,529.0,529.0,529.0,525.0,525.0,525.0,526.0,526.0,526.0,512.0,512.0,512.0,512.0,512.0,516.0,501.0,515.0,515.0,515.0,515.0,505.0,505.0,505.0,484.0,484.0,484.0,471.0,471.0,471.0,486.0,486.0,486.0,486.0,486.0,532.0,519.5333333333333,520.5777777777778,483.9555555555556,499.0,516.0,532.0,134.0,29.0,85.0,527.0,529.0,532.0
0,486.0,504.0,471.0,527.0,527.0,527.0,486.0,486.0,486.0,517.0,517.0,517.0,513.0,513.0,513.0,513.0,513.0,499.0,499.0,499.0,499.0,493.0,493.0,529.0,529.0,529.0,525.0,525.0,525.0,526.0,526.0,526.0,512.0,512.0,512.0,512.0,512.0,516.0,516.0,516.0,516.0,504.0,504.0,505.0,505.0,505.0,484.0,484.0,484.0,471.0,471.0,471.0,486.0,486.0,486.0,486.0,486.0,532.0,532.0,532.0,532.0,585.0,585.0,517.5555555555555,521.6444444444444,488.06666666666666,493.0,504.0,585.0,134.0,25.0,138.0,527.0,529.0,585.0
0,486.0,504.0,471.0,486.0,486.0,517.0,517.0,517.0,513.0,513.0,513.0,513.0,513.0,499.0,499.0,499.0,499.0,493.0,493.0,493.0,493.0,506.0,506.0,525.0,525.0,526.0,526.0,526.0,512.0,512.0,512.0,512.0,512.0,516.0,516.0,516.0,516.0,504.0,504.0,504.0,504.0,525.0,525.0,484.0,484.0,471.0,471.0,471.0,486.0,486.0,486.0,486.0,486.0,532.0,532.0,532.0,532.0,585.0,585.0,585.0,585.0,605.0,605.0,516.7777777777778,521.2222222222222,499.0888888888889,506.0,525.0,605.0,134.0,25.0,158.0,517.0,526.0,605.0
0,493.0,504.0,471.0,517.0,513.0,513.0,513.0,513.0,513.0,499.0,499.0,499.0,499.0,493.0,493.0,493.0,493.0,506.0,506.0,506.0,506.0,547.0,547.0,526.0,512.0,512.0,512.0,512.0,512.0,516.0,516.0,516.0,516.0,504.0,504.0,504.0,504.0,525.0,525.0,525.0,525.0,512.0,512.0,471.0,486.0,486.0,486.0,486.0,486.0,532.0,532.0,532.0,532.0,585.0,585.0,585.0,585.0,605.0,605.0,605.0,605.0,546.0,546.0,518.6,520.8222222222222,510.5111111111111,547.0,512.0,546.0,134.0,25.0,158.0,547.0,526.0,605.0
0,493.0,502.0,486.0,513.0,513.0,499.0,499.0,499.0,499.0,493.0,493.0,493.0,493.0,506.0,506.0,506.0,506.0,547.0,547.0,547.0,547.0,512.0,512.0,512.0,512.0,516.0,516.0,516.0,516.0,504.0,504.0,504.0,504.0,525.0,525.0,525.0,525.0,512.0,512.0,512.0,512.0,502.0,502.0,486.0,486.0,532.0,532.0,532.0,532.0,585.0,585.0,585.0,585.0,605.0,605.0,605.0,605.0,546.0,546.0,546.0,546.0,506.0,506.0,515.6888888888889,519.4666666666667,517.4,512.0,502.0,506.0,134.0,27.0,156.0,547.0,525.0,605.0
0,482.0,502.0,499.0,499.0,499.0,499.0,493.0,493.0,493.0,493.0,506.0,506.0,506.0,506.0,547.0,547.0,547.0,547.0,512.0,512.0,512.0,482.0,482.0,516.0,516.0,516.0,504.0,504.0,504.0,504.0,525.0,525.0,525.0,525.0,512.0,512.0,512.0,512.0,502.0,502.0,502.0,506.0,506.0,532.0,532.0,532.0,585.0,585.0,585.0,585.0,605.0,605.0,605.0,605.0,546.0,546.0,546.0,546.0,506.0,506.0,506.0,499.0,499.0,509.6666666666667,518.2444444444444,520.1555555555556,482.0,506.0,499.0,134.0,27.0,134.0,547.0,525.0,605.0
0,482.0,502.0,499.0,493.0,493.0,493.0,506.0,506.0,506.0,506.0,547.0,547.0,547.0,547.0,512.0,512.0,512.0,482.0,482.0,482.0,482.0,491.0,491.0,504.0,504.0,504.0,525.0,525.0,525.0,525.0,512.0,512.0,512.0,512.0,502.0,502.0,502.0,506.0,506.0,506.0,506.0,528.0,528.0,585.0,585.0,585.0,605.0,605.0,605.0,605.0,546.0,546.0,546.0,546.0,506.0,506.0,506.0,499.0,499.0,499.0,499.0,516.0,516.0,503.8888888888889,517.4666666666667,522.0,491.0,528.0,516.0,96.0,27.0,134.0,547.0,528.0,605.0
0,482.0,501.0,499.0,506.0,506.0,506.0,547.0,547.0,547.0,547.0,512.0,512.0,512.0,482.0,482.0,482.0,482.0,491.0,491.0,491.0,491.0,526.0,526.0,525.0,525.0,525.0,512.0,512.0,512.0,512.0,502.0,502.0,502.0,506.0,506.0,506.0,506.0,528.0,528.0,528.0,528.0,501.0,501.0,605.0,605.0,605.0,546.0,546.0,546.0,546.0,506.0,506.0,506.0,499.0,499.0,499.0,499.0,516.0,516.0,516.0,516.0,519.0,519.0,506.9111111111111,516.2222222222222,522.8444444444444,526.0,501.0,519.0,65.0,28.0,134.0,547.0,528.0,605.0
0,482.0,498.0,499.0,547.0,547.0,547.0,547.0,512.0,512.0,512.0,482.0,482.0,482.0,482.0,491.0,491.0,491.0,491.0,526.0,526.0,526.0,526.0,493.0,512.0,512.0,512.0,512.0,502.0,502.0,502.0,506.0,506.0,506.0,506.0,528.0,528.0,528.0,528.0,501.0,501.0,501.0,501.0,498.0,546.0,546.0,546.0,546.0,506.0,506.0,506.0,499.0,499.0,499.0,499.0,516.0,516.0,516.0,516.0,519.0,519.0,519.0,519.0,502.0,507.4,514.2888888888889,522.9555555555555,493.0,498.0,502.0,65.0,31.0,134.0,547.0,528.0,546.0
0,482.0,490.0,499.0,547.0,512.0,512.0,512.0,482.0,482.0,482.0,482.0,491.0,491.0,491.0,491.0,526.0,526.0,526.0,526.0,493.0,493.0,532.0,532.0,512.0,502.0,502.0,502.0,506.0,506.0,506.0,506.0,528.0,528.0,528.0,528.0,501.0,501.0,501.0,501.0,498.0,498.0,490.0,490.0,546.0,506.0,506.0,506.0,499.0,499.0,499.0,499.0,516.0,516.0,516.0,516.0,519.0,519.0,519.0,519.0,502.0,502.0,515.0,515.0,507.77777777777777,511.9555555555556,523.8,532.0,490.0,515.0,65.0,38.0,134.0,547.0,528.0,546.0
0,482.0,489.0,499.0,482.0,482.0,482.0,482.0,491.0,491.0,491.0,491.0,526.0,526.0,526.0,526.0,493.0,493.0,532.0,532.0,532.0,532.0,482.0,482.0,506.0,506.0,506.0,506.0,528.0,528.0,528.0,528.0,501.0,501.0,501.0,501.0,498.0,498.0,490.0,490.0,490.0,490.0,489.0,489.0,499.0,499.0,499.0,499.0,516.0,516.0,516.0,516.0,519.0,519.0,519.0,519.0,502.0,502.0,515.0,515.0,515.0,515.0,537.0,537.0,508.26666666666665,508.75555555555553,528.1111111111111,482.0,489.0,537.0,65.0,39.0,134.0,532.0,528.0,537.0
0,482.0,487.0,502.0,491.0,491.0,491.0,491.0,526.0,526.0,526.0,526.0,493.0,493.0,532.0,532.0,532.0,532.0,482.0,482.0,482.0,482.0,496.0,496.0,528.0,528.0,528.0,528.0,501.0,501.0,501.0,501.0,498.0,498.0,490.0,490.0,490.0,490.0,489.0,489.0,489.0,489.0,487.0,487.0,516.0,516.0,516.0,516.0,519.0,519.0,519.0,519.0,502.0,502.0,515.0,515.0,515.0,515.0,537.0,537.0,537.0,537.0,526.0,526.0,506.0444444444444,506.31111111111113,532.4888888888889,496.0,487.0,526.0,65.0,41.0,119.0,532.0,528.0,537.0
0,482.0,487.0,502.0,526.0,526.0,526.0,526.0,493.0,493.0,532.0,532.0,532.0,532.0,482.0,482.0,482.0,482.0,496.0,496.0,496.0,496.0,513.0,513.0,501.0,501.0,501.0,501.0,498.0,498.0,490.0,490.0,490.0,490.0,489.0,489.0,489.0,489.0,487.0,487.0,487.0,487.0,496.0,496.0,519.0,519.0,519.0,519.0,502.0,502.0,515.0,515.0,515.0,515.0,537.0,537.0,537.0,537.0,526.0,526.0,526.0,526.0,502.0,502.0,505.9111111111111,504.31111111111113,532.9333333333333,513.0,496.0,502.0,65.0,41.0,106.0,532.0,501.0,537.0
0,482.0,487.0,463.0,493.0,493.0,532.0,532.0,532.0,532.0,482.0,482.0,482.0,482.0,496.0,496.0,496.0,496.0,513.0,513.0,513.0,513.0,485.0,485.0,498.0,498.0,490.0,490.0,490.0,490.0,489.0,489.0,489.0,489.0,487.0,487.0,487.0,487.0,496.0,496.0,496.0,496.0,514.0,514.0,502.0,502.0,515.0,515.0,515.0,515.0,537.0,537.0,537.0,537.0,526.0,526.0,526.0,526.0,502.0,502.0,502.0,502.0,463.0,463.0,506.1777777777778,503.8666666666667,526.1777777777778,485.0,514.0,463.0,65.0,41.0,142.0,532.0,514.0,537.0
0,481.0,487.0,461.0,532.0,532.0,482.0,482.0,482.0,482.0,496.0,496.0,496.0,496.0,513.0,513.0,513.0,513.0,485.0,485.0,485.0,485.0,485.0,481.0,490.0,490.0,489.0,489.0,489.0,489.0,487.0,487.0,487.0,487.0,496.0,496.0,496.0,496.0,514.0,514.0,514.0,514.0,514.0,524.0,515.0,515.0,537.0,537.0,537.0,537.0,526.0,526.0,526.0,526.0,502.0,502.0,502.0,502.0,463.0,463.0,463.0,463.0,463.0,461.0,504.8,504.0444444444444,514.4,481.0,524.0,461.0,66.0,41.0,144.0,532.0,524.0,537.0
0,481.0,487.0,461.0,482.0,482.0,482.0,496.0,496.0,496.0,496.0,513.0,513.0,513.0,513.0,485.0,485.0,485.0,485.0,485.0,481.0,481.0,529.0,529.0,489.0,489.0,489.0,487.0,487.0,487.0,487.0,496.0,496.0,496.0,496.0,514.0,514.0,514.0,514.0,514.0,524.0,524.0,526.0,526.0,537.0,537.0,537.0,526.0,526.0,526.0,526.0,502.0,502.0,502.0,502.0,463.0,463.0,463.0,463.0,463.0,461.0,461.0,479.0,479.0,504.35555555555555,504.35555555555555,506.9111111111111,529.0,526.0,479.0,66.0,41.0,85.0,529.0,526.0,537.0
0,481.0,487.0,461.0,496.0,496.0,496.0,513.0,513.0,513.0,513.0,485.0,485.0,485.0,485.0,485.0,481.0,481.0,529.0,529.0,529.0,529.0,518.0,518.0,487.0,487.0,487.0,496.0,496.0,496.0,496.0,514.0,514.0,514.0,514.0,514.0,524.0,524.0,526.0,526.0,526.0,526.0,529.0,529.0,526.0,526.0,526.0,502.0,502.0,502.0,502.0,463.0,463.0,463.0,463.0,463.0,461.0,461.0,479.0,479.0,479.0,479.0,503.0,503.0,503.0444444444444,505.9555555555556,502.9111111111111,518.0,529.0,503.0,51.0,42.0,76.0,529.0,529.0,526.0
0,481.0,496.0,461.0,513.0,513.0,513.0,485.0,485.0,485.0,485.0,485.0,481.0,481.0,529.0,529.0,529.0,529.0,518.0,518.0,518.0,518.0,518.0,498.0,496.0,496.0,496.0,514.0,514.0,514.0,514.0,514.0,524.0,524.0,526.0,526.0,526.0,526.0,529.0,529.0,529.0,529.0,529.0,527.0,502.0,502.0,502.0,463.0,463.0,463.0,463.0,463.0,461.0,461.0,479.0,479.0,479.0,479.0,503.0,503.0,503.0,503.0,503.0,511.0,504.46666666666664,508.1333333333333,503.1333333333333,498.0,527.0,511.0,51.0,42.0,76.0,529.0,529.0,511.0
0,481.0,514.0,461.0,485.0,485.0,485.0,485.0,481.0,481.0,529.0,529.0,529.0,529.0,518.0,518.0,518.0,518.0,518.0,498.0,498.0,498.0,516.0,516.0,514.0,514.0,514.0,514.0,524.0,524.0,526.0,526.0,526.0,526.0,529.0,529.0,529.0,529.0,529.0,527.0,527.0,527.0,526.0,526.0,463.0,463.0,463.0,463.0,461.0,461.0,479.0,479.0,479.0,479.0,503.0,503.0,503.0,503.0,503.0,511.0,511.0,511.0,514.0,514.0,506.2888888888889,508.97777777777776,503.5777777777778,516.0,526.0,514.0,51.0,42.0,76.0,529.0,529.0,514.0
0,481.0,523.0,461.0,481.0,481.0,529.0,529.0,529.0,529.0,518.0,518.0,518.0,518.0,518.0,498.0,498.0,498.0,516.0,516.0,516.0,516.0,540.0,540.0,524.0,524.0,526.0,526.0,526.0,526.0,529.0,529.0,529.0,529.0,529.0,527.0,527.0,527.0,526.0,526.0,526.0,526.0,523.0,523.0,461.0,461.0,479.0,479.0,479.0,479.0,503.0,503.0,503.0,503.0,503.0,511.0,511.0,511.0,514.0,514.0,514.0,514.0,529.0,529.0,508.02222222222224,509.8666666666667,503.93333333333334,540.0,523.0,529.0,59.0,42.0,76.0,540.0,529.0,529.0
0,498.0,520.0,479.0,529.0,529.0,518.0,518.0,518.0,518.0,518.0,498.0,498.0,498.0,516.0,516.0,516.0,516.0,540.0,540.0,540.0,540.0,501.0,501.0,526.0,526.0,529.0,529.0,529.0,529.0,529.0,527.0,527.0,527.0,526.0,526.0,526.0,526.0,523.0,523.0,523.0,523.0,520.0,520.0,479.0,479.0,503.0,503.0,503.0,503.0,503.0,511.0,511.0,511.0,514.0,514.0,514.0,514.0,529.0,529.0,529.0,529.0,555.0,555.0,509.0,511.8222222222222,506.73333333333335,501.0,520.0,555.0,59.0,42.0,94.0,540.0,529.0,555.0
0,498.0,509.0,503.0,518.0,518.0,518.0,498.0,498.0,498.0,516.0,516.0,516.0,516.0,540.0,540.0,540.0,540.0,501.0,501.0,501.0,501.0,511.0,511.0,529.0,529.0,529.0,527.0,527.0,527.0,526.0,526.0,526.0,526.0,523.0,523.0,523.0,523.0,520.0,520.0,520.0,520.0,509.0,509.0,503.0,503.0,503.0,511.0,511.0,511.0,514.0,514.0,514.0,514.0,529.0,529.0,529.0,529.0,555.0,555.0,555.0,555.0,566.0,566.0,506.68888888888887,514.0,510.77777777777777,511.0,509.0,566.0,59.0,42.0,105.0,540.0,529.0,566.0
0,498.0,509.0,503.0,518.0,498.0,498.0,498.0,516.0,516.0,516.0,516.0,540.0,540.0,540.0,540.0,501.0,501.0,501.0,501.0,511.0,511.0,511.0,509.0,529.0,527.0,527.0,527.0,526.0,526.0,526.0,526.0,523.0,523.0,523.0,523.0,520.0,520.0,520.0,520.0,509.0,509.0,509.0,509.0,503.0,511.0,511.0,511.0,514.0,514.0,514.0,514.0,529.0,529.0,529.0,529.0,555.0,555.0,555.0,555.0,566.0,566.0,566.0,564.0,507.93333333333334,514.8888888888889,512.0222222222222,509.0,509.0,564.0,59.0,42.0,105.0,540.0,529.0,566.0
0,501.0,509.0,514.0,516.0,516.0,516.0,540.0,540.0,540.0,540.0,501.0,501.0,501.0,501.0,511.0,511.0,511.0,509.0,509.0,509.0,509.0,509.0,545.0,526.0,526.0,526.0,523.0,523.0,523.0,523.0,520.0,520.0,520.0,520.0,509.0,509.0,509.0,509.0,509.0,509.0,509.0,509.0,509.0,514.0,514.0,514.0,529.0,529.0,529.0,529.0,555.0,555.0,555.0,555.0,566.0,566.0,566.0,564.0,564.0,564.0,564.0,564.0,555.0,510.8,517.2444444444444,515.5555555555555,545.0,509.0,555.0,64.0,42.0,105.0,545.0,526.0,566.0
0,501.0,509.0,529.0,540.0,540.0,540.0,540.0,501.0,501.0,501.0,501.0,511.0,511.0,511.0,509.0,509.0,509.0,509.0,509.0,545.0,545.0,545.0,545.0,523.0,523.0,523.0,523.0,520.0,520.0,520.0,520.0,509.0,509.0,509.0,509.0,509.0,509.0,509.0,509.0,509.0,509.0,509.0,509.0,529.0,529.0,529.0,529.0,555.0,555.0,555.0,555.0,566.0,566.0,566.0,564.0,564.0,564.0,564.0,564.0,555.0,555.0,555.0,555.0,513.3111111111111,518.3111111111111,518.5555555555555,545.0,509.0,555.0,64.0,33.0,105.0,545.0,523.0,566.0
0,482.0,506.0,513.0,540.0,501.0,501.0,501.0,501.0,511.0,511.0,511.0,509.0,509.0,509.0,509.0,509.0,545.0,545.0,545.0,545.0,506.0,482.0,482.0,523.0,520.0,520.0,520.0,520.0,509.0,509.0,509.0,509.0,509.0,509.0,509.0,509.0,509.0,509.0,509.0,509.0,511.0,506.0,506.0,529.0,555.0,555.0,555.0,555.0,566.0,566.0,566.0,564.0,564.0,564.0,564.0,564.0,555.0,555.0,555.0,555.0,529.0,513.0,513.0,512.4,518.6888888888889,520.5111111111111,482.0,506.0,513.0,64.0,23.0,105.0,545.0,523.0,566.0
0,482.0,503.0,496.0,501.0,501.0,511.0,511.0,511.0,509.0,509.0,509.0,509.0,509.0,545.0,545.0,545.0,545.0,506.0,482.0,482.0,482.0,493.0,493.0,520.0,520.0,509.0,509.0,509.0,509.0,509.0,509.0,509.0,509.0,509.0,509.0,509.0,509.0,511.0,506.0,506.0,506.0,503.0,503.0,555.0,555.0,566.0,566.0,566.0,564.0,564.0,564.0,564.0,564.0,555.0,555.0,555.0,555.0,529.0,513.0,513.0,513.0,496.0,496.0,512.6888888888889,518.0222222222222,523.0888888888888,493.0,503.0,496.0,64.0,26.0,105.0,545.0,520.0,566.0
0,482.0,503.0,459.0,511.0,511.0,509.0,509.0,509.0,509.0,509.0,545.0,545.0,545.0,545.0,506.0,482.0,482.0,482.0,493.0,493.0,493.0,504.0,504.0,509.0,509.0,509.0,509.0,509.0,509.0,509.0,509.0,509.0,509.0,509.0,511.0,506.0,506.0,506.0,503.0,503.0,503.0,507.0,507.0,566.0,566.0,564.0,564.0,564.0,564.0,564.0,555.0,555.0,555.0,555.0,529.0,513.0,513.0,513.0,496.0,496.0,496.0,459.0,459.0,513.8888888888889,517.0222222222222,523.7333333333333,504.0,507.0,459.0,63.0,26.0,107.0,545.0,511.0,566.0
0,482.0,503.0,442.0,509.0,509.0,509.0,545.0,545.0,545.0,545.0,506.0,482.0,482.0,482.0,493.0,493.0,493.0,504.0,504.0,504.0,504.0,520.0,520.0,509.0,509.0,509.0,509.0,509.0,509.0,509.0,511.0,506.0,506.0,506.0,503.0,503.0,503.0,507.0,507.0,507.0,507.0,510.0,510.0,564.0,564.0,564.0,555.0,555.0,555.0,555.0,529.0,513.0,513.0,513.0,496.0,496.0,496.0,459.0,459.0,459.0,459.0,442.0,442.0,512.3777777777777,515.4666666666667,521.2,520.0,510.0,442.0,63.0,26.0,124.0,545.0,511.0,564.0
0,482.0,503.0,442.0,545.0,545.0,545.0,545.0,506.0,482.0,482.0,482.0,493.0,493.0,493.0,504.0,504.0,504.0,504.0,520.0,520.0,520.0,512.0,512.0,509.0,509.0,509.0,509.0,511.0,506.0,506.0,506.0,503.0,503.0,503.0,507.0,507.0,507.0,507.0,510.0,510.0,510.0,510.0,510.0,555.0,555.0,555.0,555.0,529.0,513.0,513.0,513.0,496.0,496.0,496.0,459.0,459.0,459.0,459.0,442.0,442.0,442.0,449.0,449.0,512.1555555555556,514.2,517.4444444444445,512.0,510.0,449.0,63.0,26.0,124.0,545.0,511.0,555.0
0,482.0,501.0,442.0,506.0,482.0,482.0,482.0,493.0,493.0,493.0,504.0,504.0,504.0,504.0,520.0,520.0,520.0,512.0,512.0,512.0,512.0,523.0,523.0,511.0,506.0,506.0,506.0,503.0,503.0,503.0,507.0,507.0,507.0,507.0,510.0,510.0,510.0,510.0,510.0,510.0,510.0,501.0,501.0,529.0,513.0,513.0,513.0,496.0,496.0,496.0,459.0,459.0,459.0,459.0,442.0,442.0,442.0,449.0,449.0,449.0,449.0,469.0,469.0,513.0,512.2,513.1777777777778,523.0,501.0,469.0,63.0,26.0,124.0,523.0,511.0,529.0
0,489.0,497.0,442.0,493.0,493.0,493.0,504.0,504.0,504.0,504.0,520.0,520.0,520.0,512.0,512.0,512.0,512.0,523.0,523.0,523.0,523.0,489.0,489.0,503.0,503.0,503.0,507.0,507.0,507.0,507.0,510.0,510.0,510.0,510.0,510.0,510.0,510.0,501.0,501.0,501.0,501.0,497.0,497.0,496.0,496.0,496.0,459.0,459.0,459.0,459.0,442.0,442.0,442.0,449.0,449.0,449.0,449.0,469.0,469.0,469.0,469.0,493.0,493.0,512.5111111111111,509.77777777777777,510.31111111111113,489.0,497.0,493.0,63.0,29.0,124.0,523.0,510.0,496.0
0,489.0,497.0,442.0,504.0,504.0,504.0,504.0,520.0,520.0,520.0,512.0,512.0,512.0,512.0,523.0,523.0,523.0,523.0,489.0,489.0,489.0,496.0,496.0,507.0,507.0,507.0,507.0,510.0,510.0,510.0,510.0,510.0,510.0,510.0,501.0,501.0,501.0,501.0,497.0,497.0,497.0,510.0,510.0,459.0,459.0,459.0,459.0,442.0,442.0,442.0,449.0,449.0,449.0,449.0,469.0,469.0,469.0,469.0,493.0,493.0,493.0,500.0,500.0,509.9555555555556,508.55555555555554,508.55555555555554,496.0,510.0,500.0,63.0,26.0,124.0,523.0,510.0,500.0
0,479.0,491.0,442.0,520.0,520.0,520.0,512.0,512.0,512.0,512.0,523.0,523.0,523.0,523.0,489.0,489.0,489.0,496.0,496.0,496.0,496.0,479.0,479.0,510.0,510.0,510.0,510.0,510.0,510.0,510.0,501.0,501.0,501.0,501.0,497.0,497.0,497.0,510.0,510.0,510.0,510.0,491.0,491.0,442.0,442.0,442.0,449.0,449.0,449.0,449.0,469.0,469.0,469.0,469.0,493.0,493.0,493.0,500.0,500.0,500.0,500.0,461.0,461.0,507.02222222222224,506.68888888888887,503.0888888888889,479.0,491.0,461.0,66.0,29.0,124.0,523.0,510.0,500.0
0,479.0,491.0,449.0,512.0,512.0,512.0,523.0,523.0,523.0,523.0,489.0,489.0,489.0,496.0,496.0,496.0,496.0,479.0,479.0,479.0,479.0,548.0,548.0,510.0,510.0,510.0,501.0,501.0,501.0,501.0,497.0,497.0,497.0,510.0,510.0,510.0,510.0,491.0,491.0,491.0,491.0,494.0,494.0,449.0,449.0,449.0,469.0,469.0,469.0,469.0,493.0,493.0,493.0,500.0,500.0,500.0,500.0,461.0,461.0,461.0,461.0,498.0,498.0,506.8666666666667,505.06666666666666,497.4,548.0,494.0,498.0,69.0,20.0,124.0,548.0,510.0,500.0
0,479.0,491.0,461.0,523.0,523.0,523.0,489.0,489.0,489.0,496.0,496.0,496.0,496.0,479.0,479.0,479.0,479.0,548.0,548.0,548.0,548.0,559.0,559.0,501.0,501.0,501.0,497.0,497.0,497.0,510.0,510.0,510.0,510.0,491.0,491.0,491.0,491.0,494.0,494.0,494.0,494.0,518.0,518.0,469.0,469.0,469.0,493.0,493.0,493.0,500.0,500.0,500.0,500.0,461.0,461.0,461.0,461.0,498.0,498.0,498.0,498.0,557.0,557.0,511.6,504.46666666666664,492.6,559.0,518.0,557.0,80.0,27.0,122.0,559.0,518.0,557.0
0,479.0,491.0,461.0,489.0,489.0,496.0,496.0,496.0,496.0,479.0,479.0,479.0,479.0,548.0,548.0,548.0,548.0,559.0,559.0,559.0,559.0,493.0,493.0,497.0,497.0,510.0,510.0,510.0,510.0,491.0,491.0,491.0,491.0,494.0,494.0,494.0,494.0,518.0,518.0,518.0,518.0,519.0,519.0,493.0,493.0,500.0,500.0,500.0,500.0,461.0,461.0,461.0,461.0,498.0,498.0,498.0,498.0,557.0,557.0,557.0,557.0,585.0,585.0,511.5111111111111,505.31111111111113,493.6222222222222,493.0,519.0,585.0,80.0,28.0,143.0,559.0,519.0,585.0
0,479.0,491.0,461.0,496.0,496.0,479.0,479.0,479.0,479.0,548.0,548.0,548.0,548.0,559.0,559.0,559.0,559.0,493.0,493.0,493.0,493.0,495.0,495.0,510.0,510.0,491.0,491.0,491.0,491.0,494.0,494.0,494.0,494.0,518.0,518.0,518.0,518.0,519.0,519.0,519.0,519.0,515.0,515.0,500.0,500.0,461.0,461.0,461.0,461.0,498.0,498.0,498.0,498.0,557.0,557.0,557.0,557.0,585.0,585.0,585.0,585.0,547.0,547.0,509.24444444444447,506.0444444444444,496.1111111111111,495.0,515.0,547.0,80.0,28.0,143.0,559.0,519.0,585.0
0,477.0,491.0,461.0,479.0,479.0,548.0,548.0,548.0,548.0,559.0,559.0,559.0,559.0,493.0,493.0,493.0,493.0,495.0,495.0,495.0,495.0,477.0,477.0,491.0,491.0,494.0,494.0,494.0,494.0,518.0,518.0,518.0,518.0,519.0,519.0,519.0,519.0,515.0,515.0,515.0,515.0,520.0,520.0,461.0,461.0,498.0,498.0,498.0,498.0,557.0,557.0,557.0,557.0,585.0,585.0,585.0,585.0,547.0,547.0,547.0,547.0,509.0,509.0,509.1111111111111,507.2,498.2,477.0,520.0,509.0,82.0,29.0,143.0,559.0,520.0,585.0
0,477.0,494.0,498.0,548.0,548.0,559.0,559.0,559.0,559.0,493.0,493.0,493.0,493.0,495.0,495.0,495.0,495.0,477.0,477.0,477.0,477.0,531.0,531.0,494.0,494.0,518.0,518.0,518.0,518.0,519.0,519.0,519.0,519.0,515.0,515.0,515.0,515.0,520.0,520.0,520.0,520.0,523.0,523.0,498.0,498.0,557.0,557.0,557.0,557.0,585.0,585.0,585.0,585.0,547.0,547.0,547.0,547.0,509.0,509.0,509.0,509.0,534.0,534.0,509.35555555555555,508.5777777777778,502.93333333333334,531.0,523.0,534.0,82.0,32.0,143.0,559.0,523.0,585.0
0,477.0,515.0,509.0,559.0,559.0,559.0,493.0,493.0,493.0,493.0,495.0,495.0,495.0,495.0,477.0,477.0,477.0,477.0,531.0,531.0,531.0,531.0,532.0,518.0,518.0,518.0,519.0,519.0,519.0,519.0,515.0,515.0,515.0,515.0,520.0,520.0,520.0,520.0,523.0,523.0,523.0,523.0,534.0,557.0,557.0,557.0,585.0,585.0,585.0,585.0,547.0,547.0,547.0,547.0,509.0,509.0,509.0,509.0,534.0,534.0,534.0,534.0,559.0,510.46666666666664,509.75555555555553,509.24444444444447,532.0,534.0,559.0,82.0,43.0,143.0,559.0,534.0,585.0
0,477.0,515.0,509.0,493.0,493.0,493.0,495.0,495.0,495.0,495.0,477.0,477.0,477.0,477.0,531.0,531.0,531.0,531.0,532.0,532.0,532.0,522.0,522.0,519.0,519.0,519.0,515.0,515.0,515.0,515.0,520.0,520.0,520.0,520.0,523.0,523.0,523.0,523.0,534.0,534.0,534.0,523.0,523.0,585.0,585.0,585.0,547.0,547.0,547.0,547.0,509.0,509.0,509.0,509.0,534.0,534.0,534.0,534.0,559.0,559.0,559.0,559.0,559.0,511.6222222222222,511.4,519.1777777777778,522.0,523.0,559.0,82.0,43.0,136.0,532.0,534.0,585.0
0,477.0,515.0,509.0,495.0,495.0,495.0,477.0,477.0,477.0,477.0,531.0,531.0,531.0,531.0,532.0,532.0,532.0,522.0,522.0,522.0,522.0,512.0,512.0,515.0,515.0,515.0,520.0,520.0,520.0,520.0,523.0,523.0,523.0,523.0,534.0,534.0,534.0,523.0,523.0,523.0,523.0,520.0,520.0,547.0,547.0,547.0,509.0,509.0,509.0,509.0,534.0,534.0,534.0,534.0,559.0,559.0,559.0,559.0,559.0,559.0,559.0,539.0,539.0,511.3333333333333,513.0222222222222,526.7333333333333,512.0,520.0,539.0,82.0,43.0,124.0,532.0,534.0,559.0
0,477.0,509.0,502.0,477.0,477.0,477.0,531.0,531.0,531.0,531.0,532.0,532.0,532.0,522.0,522.0,522.0,522.0,512.0,512.0,512.0,512.0,498.0,498.0,520.0,520.0,520.0,523.0,523.0,523.0,523.0,534.0,534.0,534.0,523.0,523.0,523.0,523.0,520.0,520.0,520.0,520.0,509.0,509.0,509.0,509.0,509.0,534.0,534.0,534.0,534.0,559.0,559.0,559.0,559.0,559.0,559.0,559.0,539.0,539.0,539.0,539.0,502.0,502.0,512.0,514.4888888888889,529.7111111111111,498.0,509.0,502.0,82.0,43.0,124.0,532.0,534.0,559.0
0,498.0,508.0,494.0,531.0,531.0,531.0,531.0,532.0,532.0,532.0,522.0,522.0,522.0,522.0,512.0,512.0,512.0,512.0,498.0,498.0,498.0,498.0,513.0,523.0,523.0,523.0,523.0,534.0,534.0,534.0,523.0,523.0,523.0,523.0,520.0,520.0,520.0,520.0,509.0,509.0,509.0,509.0,508.0,534.0,534.0,534.0,534.0,559.0,559.0,559.0,559.0,559.0,559.0,559.0,539.0,539.0,539.0,539.0,502.0,502.0,502.0,502.0,494.0,512.4666666666667,514.4,529.6666666666666,513.0,508.0,494.0,82.0,43.0,124.0,532.0,534.0,559.0
0,498.0,508.0,494.0,532.0,532.0,522.0,522.0,522.0,522.0,512.0,512.0,512.0,512.0,498.0,498.0,498.0,498.0,513.0,513.0,513.0,513.0,513.0,527.0,534.0,534.0,523.0,523.0,523.0,523.0,520.0,520.0,520.0,520.0,509.0,509.0,509.0,509.0,508.0,508.0,508.0,508.0,508.0,509.0,559.0,559.0,559.0,559.0,559.0,559.0,539.0,539.0,539.0,539.0,502.0,502.0,502.0,502.0,494.0,494.0,494.0,494.0,494.0,501.0,516.1777777777778,515.8888888888889,532.6222222222223,527.0,509.0,501.0,82.0,40.0,91.0,532.0,534.0,559.0
0,495.0,507.0,494.0,522.0,512.0,512.0,512.0,512.0,498.0,498.0,498.0,498.0,513.0,513.0,513.0,513.0,513.0,527.0,527.0,527.0,527.0,495.0,495.0,523.0,520.0,520.0,520.0,520.0,509.0,509.0,509.0,509.0,508.0,508.0,508.0,508.0,508.0,509.0,509.0,509.0,509.0,507.0,507.0,559.0,539.0,539.0,539.0,539.0,502.0,502.0,502.0,502.0,494.0,494.0,494.0,494.0,494.0,501.0,501.0,501.0,501.0,500.0,500.0,512.1777777777778,516.9333333333333,531.6,495.0,507.0,500.0,82.0,27.0,91.0,527.0,523.0,559.0
0,495.0,507.0,470.0,512.0,498.0,498.0,498.0,498.0,513.0,513.0,513.0,513.0,513.0,527.0,527.0,527.0,527.0,495.0,495.0,495.0,495.0,514.0,514.0,520.0,509.0,509.0,509.0,509.0,508.0,508.0,508.0,508.0,508.0,509.0,509.0,509.0,509.0,507.0,507.0,507.0,507.0,511.0,511.0,539.0,502.0,502.0,502.0,502.0,494.0,494.0,494.0,494.0,494.0,501.0,501.0,501.0,501.0,500.0,500.0,500.0,500.0,470.0,470.0,508.8,516.1111111111111,524.5777777777778,514.0,511.0,470.0,55.0,27.0,115.0,527.0,520.0,539.0
0,495.0,507.0,467.0,498.0,513.0,513.0,513.0,513.0,513.0,527.0,527.0,527.0,527.0,495.0,495.0,495.0,495.0,514.0,514.0,514.0,514.0,506.0,506.0,509.0,508.0,508.0,508.0,508.0,508.0,509.0,509.0,509.0,509.0,507.0,507.0,507.0,507.0,511.0,511.0,511.0,511.0,507.0,507.0,502.0,494.0,494.0,494.0,494.0,494.0,501.0,501.0,501.0,501.0,500.0,500.0,500.0,500.0,470.0,470.0,470.0,470.0,467.0,467.0,510.26666666666665,515.3111111111111,515.0666666666667,506.0,507.0,467.0,55.0,27.0,92.0,527.0,511.0,502.0
0,467.0,507.0,467.0,513.0,513.0,527.0,527.0,527.0,527.0,495.0,495.0,495.0,495.0,514.0,514.0,514.0,514.0,506.0,506.0,506.0,506.0,467.0,467.0,508.0,508.0,509.0,509.0,509.0,509.0,507.0,507.0,507.0,507.0,511.0,511.0,511.0,511.0,507.0,507.0,507.0,507.0,508.0,508.0,494.0,494.0,501.0,501.0,501.0,501.0,500.0,500.0,500.0,500.0,470.0,470.0,470.0,470.0,467.0,467.0,467.0,467.0,494.0,494.0,509.9111111111111,514.5333333333333,510.0,467.0,508.0,494.0,65.0,27.0,92.0,527.0,511.0,501.0
0,467.0,507.0,467.0,527.0,527.0,495.0,495.0,495.0,495.0,514.0,514.0,514.0,514.0,506.0,506.0,506.0,506.0,467.0,467.0,467.0,467.0,496.0,496.0,509.0,509.0,507.0,507.0,507.0,507.0,511.0,511.0,511.0,511.0,507.0,507.0,507.0,507.0,508.0,508.0,508.0,508.0,507.0,507.0,501.0,501.0,500.0,500.0,500.0,500.0,470.0,470.0,470.0,470.0,467.0,467.0,467.0,467.0,494.0,494.0,494.0,494.0,525.0,525.0,509.1111111111111,513.3555555555556,509.4888888888889,496.0,507.0,525.0,65.0,27.0,92.0,527.0,511.0,525.0
0,467.0,507.0,467.0,495.0,495.0,495.0,495.0,514.0,514.0,514.0,514.0,506.0,506.0,506.0,506.0,467.0,467.0,467.0,467.0,496.0,496.0,496.0,536.0,507.0,507.0,507.0,507.0,511.0,511.0,511.0,511.0,507.0,507.0,507.0,507.0,508.0,508.0,508.0,508.0,507.0,507.0,507.0,510.0,500.0,500.0,500.0,500.0,470.0,470.0,470.0,470.0,467.0,467.0,467.0,467.0,494.0,494.0,494.0,494.0,525.0,525.0,525.0,545.0,508.44444444444446,512.7111111111111,509.53333333333336,536.0,510.0,545.0,69.0,27.0,92.0,536.0,511.0,545.0
0,467.0,502.0,467.0,514.0,514.0,514.0,506.0,506.0,506.0,506.0,467.0,467.0,467.0,467.0,496.0,496.0,496.0,536.0,536.0,536.0,536.0,522.0,522.0,511.0,511.0,511.0,507.0,507.0,507.0,507.0,508.0,508.0,508.0,508.0,507.0,507.0,507.0,510.0,510.0,510.0,510.0,502.0,502.0,470.0,470.0,470.0,467.0,467.0,467.0,467.0,494.0,494.0,494.0,494.0,525.0,525.0,525.0,545.0,545.0,545.0,545.0,521.0,521.0,508.5111111111111,510.1777777777778,507.46666666666664,522.0,502.0,521.0,69.0,21.0,92.0,536.0,511.0,545.0
0,467.0,497.0,467.0,506.0,506.0,506.0,506.0,467.0,467.0,467.0,467.0,496.0,496.0,496.0,536.0,536.0,536.0,536.0,522.0,522.0,522.0,489.0,489.0,507.0,507.0,507.0,507.0,508.0,508.0,508.0,508.0,507.0,507.0,507.0,510.0,510.0,510.0,510.0,502.0,502.0,502.0,497.0,497.0,467.0,467.0,467.0,467.0,494.0,494.0,494.0,494.0,525.0,525.0,525.0,545.0,545.0,545.0,545.0,521.0,521.0,521.0,506.0,506.0,507.0444444444444,508.55555555555554,504.26666666666665,489.0,497.0,506.0,69.0,23.0,78.0,536.0,510.0,545.0
0,467.0,497.0,467.0,506.0,467.0,467.0,467.0,467.0,496.0,496.0,496.0,536.0,536.0,536.0,536.0,522.0,522.0,522.0,489.0,489.0,489.0,489.0,539.0,507.0,508.0,508.0,508.0,508.0,507.0,507.0,507.0,510.0,510.0,510.0,510.0,502.0,502.0,502.0,497.0,497.0,497.0,497.0,498.0,467.0,494.0,494.0,494.0,494.0,525.0,525.0,525.0,545.0,545.0,545.0,545.0,521.0,521.0,521.0,506.0,506.0,506.0,506.0,514.0,506.6222222222222,507.0444444444444,502.24444444444447,539.0,498.0,514.0,72.0,23.0,78.0,539.0,510.0,545.0
0,489.0,497.0,506.0,496.0,496.0,496.0,536.0,536.0,536.0,536.0,522.0,522.0,522.0,489.0,489.0,489.0,489.0,539.0,539.0,539.0,539.0,511.0,511.0,507.0,507.0,507.0,510.0,510.0,510.0,510.0,502.0,502.0,502.0,497.0,497.0,497.0,497.0,498.0,498.0,498.0,498.0,506.0,506.0,525.0,525.0,525.0,545.0,545.0,545.0,545.0,521.0,521.0,521.0,506.0,506.0,506.0,506.0,514.0,514.0,514.0,514.0,519.0,519.0,509.6222222222222,505.93333333333334,502.97777777777776,511.0,506.0,519.0,72.0,14.0,78.0,539.0,510.0,545.0
0,489.0,497.0,506.0,536.0,536.0,536.0,522.0,522.0,522.0,489.0,489.0,489.0,489.0,539.0,539.0,539.0,539.0,511.0,511.0,511.0,511.0,491.0,491.0,510.0,510.0,510.0,502.0,502.0,502.0,497.0,497.0,497.0,497.0,498.0,498.0,498.0,498.0,506.0,506.0,506.0,506.0,506.0,506.0,545.0,545.0,545.0,521.0,521.0,521.0,506.0,506.0,506.0,506.0,514.0,514.0,514.0,514.0,519.0,519.0,519.0,519.0,519.0,519.0,508.55555555555554,505.75555555555553,505.2,491.0,506.0,519.0,72.0,14.0,78.0,539.0,510.0,545.0
0,489.0,497.0,503.0,522.0,522.0,489.0,489.0,489.0,489.0,539.0,539.0,539.0,539.0,511.0,511.0,511.0,511.0,491.0,491.0,491.0,491.0,525.0,525.0,502.0,502.0,497.0,497.0,497.0,497.0,498.0,498.0,498.0,498.0,506.0,506.0,506.0,506.0,506.0,506.0,506.0,506.0,505.0,505.0,521.0,521.0,506.0,506.0,506.0,506.0,514.0,514.0,514.0,514.0,519.0,519.0,519.0,519.0,519.0,519.0,519.0,519.0,503.0,503.0,507.1777777777778,505.46666666666664,506.24444444444447,525.0,505.0,503.0,72.0,14.0,78.0,539.0,506.0,521.0
0,489.0,497.0,477.0,489.0,539.0,539.0,539.0,539.0,511.0,511.0,511.0,511.0,491.0,491.0,491.0,491.0,525.0,525.0,525.0,497.0,497.0,497.0,497.0,497.0,498.0,498.0,498.0,498.0,506.0,506.0,506.0,506.0,506.0,506.0,506.0,506.0,505.0,505.0,505.0,513.0,513.0,513.0,513.0,506.0,514.0,514.0,514.0,514.0,519.0,519.0,519.0,519.0,519.0,519.0,519.0,519.0,503.0,503.0,503.0,477.0,477.0,477.0,477.0,507.31111111111113,505.9111111111111,504.24444444444447,497.0,513.0,477.0,72.0,16.0,78.0,539.0,513.0,519.0
0,491.0,498.0,477.0,539.0,511.0,511.0,511.0,511.0,491.0,491.0,491.0,491.0,525.0,525.0,525.0,497.0,497.0,497.0,497.0,497.0,497.0,515.0,515.0,498.0,506.0,506.0,506.0,506.0,506.0,506.0,506.0,506.0,505.0,505.0,505.0,513.0,513.0,513.0,513.0,513.0,513.0,513.0,513.0,514.0,519.0,519.0,519.0,519.0,519.0,519.0,519.0,519.0,503.0,503.0,503.0,477.0,477.0,477.0,477.0,477.0,477.0,482.0,482.0,506.6,506.0888888888889,505.0888888888889,515.0,513.0,482.0,72.0,16.0,78.0,539.0,513.0,519.0
0,491.0,505.0,477.0,511.0,491.0,491.0,491.0,491.0,525.0,525.0,525.0,497.0,497.0,497.0,497.0,497.0,497.0,515.0,515.0,515.0,515.0,536.0,536.0,506.0,506.0,506.0,506.0,506.0,505.0,505.0,505.0,513.0,513.0,513.0,513.0,513.0,513.0,513.0,513.0,513.0,513.0,519.0,519.0,519.0,519.0,519.0,519.0,519.0,503.0,503.0,503.0,477.0,477.0,477.0,477.0,477.0,477.0,482.0,482.0,482.0,482.0,498.0,498.0,508.3333333333333,506.8888888888889,507.1333333333333,536.0,519.0,498.0,72.0,22.0,68.0,536.0,519.0,519.0
0,491.0,505.0,477.0,491.0,525.0,525.0,525.0,497.0,497.0,497.0,497.0,497.0,497.0,515.0,515.0,515.0,515.0,536.0,536.0,536.0,536.0,503.0,503.0,506.0,505.0,505.0,505.0,513.0,513.0,513.0,513.0,513.0,513.0,513.0,513.0,513.0,513.0,519.0,519.0,519.0,519.0,529.0,529.0,519.0,503.0,503.0,503.0,477.0,477.0,477.0,477.0,477.0,477.0,482.0,482.0,482.0,482.0,498.0,498.0,498.0,498.0,491.0,491.0,513.0,508.31111111111113,507.1777777777778,503.0,529.0,491.0,50.0,32.0,68.0,536.0,529.0,519.0
0,497.0,513.0,467.0,497.0,497.0,497.0,497.0,497.0,497.0,515.0,515.0,515.0,515.0,536.0,536.0,536.0,536.0,503.0,503.0,503.0,503.0,512.0,512.0,513.0,513.0,513.0,513.0,513.0,513.0,513.0,513.0,513.0,513.0,519.0,519.0,519.0,519.0,529.0,529.0,529.0,529.0,521.0,521.0,477.0,477.0,477.0,477.0,477.0,477.0,482.0,482.0,482.0,482.0,498.0,498.0,498.0,498.0,491.0,491.0,491.0,491.0,467.0,467.0,513.1333333333333,509.84444444444443,502.64444444444445,512.0,521.0,467.0,50.0,32.0,78.0,536.0,529.0,498.0
0,478.0,513.0,464.0,497.0,497.0,515.0,515.0,515.0,515.0,536.0,536.0,536.0,536.0,503.0,503.0,503.0,503.0,512.0,512.0,512.0,478.0,478.0,478.0,513.0,513.0,513.0,513.0,513.0,513.0,519.0,519.0,519.0,519.0,529.0,529.0,529.0,529.0,521.0,521.0,521.0,528.0,528.0,528.0,477.0,477.0,482.0,482.0,482.0,482.0,498.0,498.0,498.0,498.0,491.0,491.0,491.0,491.0,467.0,467.0,467.0,464.0,464.0,464.0,509.0444444444444,511.46666666666664,496.0444444444444,478.0,528.0,464.0,61.0,32.0,57.0,536.0,529.0,498.0
0,478.0,513.0,464.0,515.0,515.0,536.0,536.0,536.0,536.0,503.0,503.0,503.0,503.0,512.0,512.0,512.0,478.0,478.0,478.0,478.0,478.0,512.0,512.0,513.0,513.0,519.0,519.0,519.0,519.0,529.0,529.0,529.0,529.0,521.0,521.0,521.0,528.0,528.0,528.0,528.0,528.0,517.0,517.0,482.0,482.0,498.0,498.0,498.0,498.0,491.0,491.0,491.0,491.0,467.0,467.0,467.0,464.0,464.0,464.0,464.0,464.0,491.0,491.0,508.1111111111111,513.5111111111111,492.84444444444443,512.0,517.0,491.0,61.0,32.0,55.0,536.0,529.0,498.0
0,478.0,516.0,464.0,536.0,536.0,536.0,503.0,503.0,503.0,503.0,512.0,512.0,512.0,478.0,478.0,478.0,478.0,478.0,512.0,512.0,512.0,503.0,503.0,519.0,519.0,519.0,529.0,529.0,529.0,529.0,521.0,521.0,521.0,528.0,528.0,528.0,528.0,528.0,517.0,517.0,517.0,516.0,516.0,498.0,498.0,498.0,491.0,491.0,491.0,491.0,467.0,467.0,467.0,464.0,464.0,464.0,464.0,464.0,491.0,491.0,491.0,522.0,522.0,508.1333333333333,514.7777777777778,493.0444444444444,503.0,516.0,522.0,61.0,31.0,58.0,536.0,529.0,522.0
0,478.0,509.0,464.0,503.0,503.0,503.0,512.0,512.0,512.0,478.0,478.0,478.0,478.0,478.0,512.0,512.0,512.0,503.0,503.0,503.0,503.0,506.0,506.0,529.0,529.0,529.0,521.0,521.0,521.0,528.0,528.0,528.0,528.0,528.0,517.0,517.0,517.0,516.0,516.0,516.0,516.0,509.0,509.0,491.0,491.0,491.0,467.0,467.0,467.0,464.0,464.0,464.0,464.0,464.0,491.0,491.0,491.0,522.0,522.0,522.0,522.0,531.0,531.0,505.68888888888887,515.8888888888889,494.0444444444444,506.0,509.0,531.0,58.0,24.0,67.0,512.0,529.0,531.0
0,478.0,509.0,464.0,512.0,512.0,478.0,478.0,478.0,478.0,478.0,512.0,512.0,512.0,503.0,503.0,503.0,503.0,506.0,506.0,506.0,506.0,523.0,523.0,521.0,521.0,528.0,528.0,528.0,528.0,528.0,517.0,517.0,517.0,516.0,516.0,516.0,516.0,509.0,509.0,509.0,509.0,510.0,510.0,467.0,467.0,464.0,464.0,464.0,464.0,464.0,491.0,491.0,491.0,522.0,522.0,522.0,522.0,531.0,531.0,531.0,531.0,528.0,528.0,506.44444444444446,516.2,494.97777777777776,523.0,510.0,528.0,58.0,24.0,67.0,523.0,528.0,531.0
0,478.0,508.0,464.0,478.0,478.0,478.0,512.0,512.0,512.0,503.0,503.0,503.0,503.0,506.0,506.0,506.0,506.0,523.0,523.0,523.0,523.0,506.0,506.0,528.0,528.0,528.0,517.0,517.0,517.0,516.0,516.0,516.0,516.0,509.0,509.0,509.0,509.0,510.0,510.0,510.0,510.0,508.0,508.0,464.0,464.0,464.0,491.0,491.0,491.0,522.0,522.0,522.0,522.0,531.0,531.0,531.0,531.0,528.0,528.0,528.0,528.0,521.0,521.0,507.77777777777777,516.4888888888889,495.8222222222222,506.0,508.0,521.0,58.0,24.0,67.0,523.0,528.0,531.0
0,503.0,508.0,491.0,512.0,512.0,512.0,503.0,503.0,503.0,503.0,506.0,506.0,506.0,506.0,523.0,523.0,523.0,523.0,506.0,506.0,506.0,543.0,543.0,517.0,517.0,517.0,516.0,516.0,516.0,516.0,509.0,509.0,509.0,509.0,510.0,510.0,510.0,510.0,508.0,508.0,508.0,511.0,511.0,491.0,491.0,491.0,522.0,522.0,522.0,522.0,531.0,531.0,531.0,531.0,528.0,528.0,528.0,528.0,521.0,521.0,521.0,520.0,520.0,508.77777777777777,516.6444444444444,497.55555555555554,543.0,511.0,520.0,65.0,21.0,67.0,543.0,517.0,531.0
0,496.0,508.0,520.0,503.0,503.0,503.0,503.0,506.0,506.0,506.0,506.0,523.0,523.0,523.0,523.0,506.0,506.0,506.0,543.0,543.0,543.0,543.0,496.0,516.0,516.0,516.0,516.0,509.0,509.0,509.0,509.0,510.0,510.0,510.0,510.0,508.0,508.0,508.0,511.0,511.0,511.0,511.0,510.0,522.0,522.0,522.0,522.0,531.0,531.0,531.0,531.0,528.0,528.0,528.0,528.0,521.0,521.0,521.0,520.0,520.0,520.0,520.0,523.0,510.8,516.4888888888889,500.4888888888889,496.0,510.0,523.0,65.0,21.0,67.0,543.0,516.0,531.0
0,496.0,506.0,520.0,506.0,506.0,523.0,523.0,523.0,523.0,506.0,506.0,506.0,543.0,543.0,543.0,543.0,496.0,496.0,496.0,496.0,496.0,504.0,504.0,509.0,509.0,510.0,510.0,510.0,510.0,508.0,508.0,508.0,511.0,511.0,511.0,511.0,510.0,510.0,510.0,510.0,510.0,506.0,506.0,531.0,531.0,528.0,528.0,528.0,528.0,521.0,521.0,521.0,520.0,520.0,520.0,520.0,523.0,523.0,523.0,523.0,523.0,529.0,529.0,509.4222222222222,515.9111111111112,506.44444444444446,504.0,506.0,529.0,65.0,23.0,67.0,543.0,511.0,531.0
0,496.0,506.0,520.0,523.0,506.0,506.0,506.0,543.0,543.0,543.0,543.0,496.0,496.0,496.0,496.0,496.0,504.0,504.0,504.0,504.0,504.0,504.0,502.0,510.0,508.0,508.0,508.0,511.0,511.0,511.0,511.0,510.0,510.0,510.0,510.0,510.0,506.0,506.0,506.0,506.0,506.0,506.0,506.0,528.0,521.0,521.0,521.0,520.0,520.0,520.0,520.0,523.0,523.0,523.0,523.0,523.0,529.0,529.0,529.0,529.0,529.0,529.0,524.0,506.55555555555554,514.2444444444444,509.93333333333334,502.0,506.0,524.0,65.0,23.0,67.0,543.0,511.0,529.0
0,496.0,506.0,520.0,543.0,543.0,543.0,543.0,496.0,496.0,496.0,496.0,496.0,504.0,504.0,504.0,504.0,504.0,504.0,502.0,502.0,502.0,502.0,499.0,511.0,511.0,511.0,511.0,510.0,510.0,510.0,510.0,510.0,506.0,506.0,506.0,506.0,506.0,506.0,506.0,506.0,506.0,506.0,503.0,520.0,520.0,520.0,520.0,523.0,523.0,523.0,523.0,523.0,529.0,529.0,529.0,529.0,529.0,529.0,524.0,524.0,524.0,524.0,522.0,506.26666666666665,512.3777777777777,513.4,502.0,506.0,524.0,65.0,22.0,67.0,543.0,511.0,529.0
0,486.0,503.0,522.0,496.0,496.0,496.0,496.0,504.0,504.0,504.0,504.0,504.0,504.0,502.0,502.0,502.0,502.0,502.0,499.0,499.0,499.0,486.0,486.0,510.0,510.0,510.0,510.0,506.0,506.0,506.0,506.0,506.0,506.0,506.0,506.0,506.0,506.0,506.0,503.0,503.0,503.0,507.0,507.0,523.0,523.0,523.0,523.0,529.0,529.0,529.0,529.0,529.0,529.0,524.0,524.0,524.0,524.0,524.0,522.0,522.0,522.0,530.0,530.0,506.5111111111111,510.0888888888889,520.0666666666667,486.0,507.0,530.0,65.0,25.0,67.0,504.0,510.0,530.0
0,486.0,502.0,522.0,504.0,504.0,504.0,504.0,504.0,504.0,502.0,502.0,502.0,502.0,502.0,499.0,499.0,499.0,486.0,486.0,486.0,486.0,500.0,500.0,506.0,506.0,506.0,506.0,506.0,506.0,506.0,506.0,506.0,506.0,506.0,503.0,503.0,503.0,507.0,507.0,507.0,507.0,502.0,502.0,529.0,529.0,529.0,529.0,529.0,529.0,524.0,524.0,524.0,524.0,524.0,522.0,522.0,522.0,530.0,530.0,530.0,530.0,529.0,529.0,506.3333333333333,508.4888888888889,524.6888888888889,500.0,502.0,529.0,57.0,15.0,40.0,504.0,507.0,530.0
0,486.0,498.0,511.0,504.0,504.0,502.0,502.0,502.0,502.0,502.0,499.0,499.0,499.0,486.0,486.0,486.0,486.0,500.0,500.0,500.0,500.0,523.0,523.0,506.0,506.0,506.0,506.0,506.0,506.0,506.0,503.0,503.0,503.0,507.0,507.0,507.0,507.0,502.0,502.0,502.0,502.0,498.0,498.0,529.0,529.0,524.0,524.0,524.0,524.0,524.0,522.0,522.0,522.0,530.0,530.0,530.0,530.0,529.0,529.0,529.0,529.0,511.0,511.0,506.8888888888889,507.0444444444444,525.2,523.0,498.0,511.0,57.0,18.0,20.0,523.0,507.0,530.0
0,486.0,498.0,489.0,502.0,502.0,502.0,499.0,499.0,499.0,486.0,486.0,486.0,486.0,500.0,500.0,500.0,500.0,523.0,523.0,523.0,523.0,517.0,517.0,506.0,506.0,506.0,503.0,503.0,503.0,507.0,507.0,507.0,507.0,502.0,502.0,502.0,502.0,498.0,498.0,498.0,498.0,501.0,501.0,524.0,524.0,524.0,522.0,522.0,522.0,530.0,530.0,530.0,530.0,529.0,529.0,529.0,529.0,511.0,511.0,511.0,511.0,489.0,489.0,508.2,506.0444444444444,522.6444444444444,517.0,501.0,489.0,57.0,13.0,42.0,523.0,507.0,530.0
0,486.0,498.0,489.0,499.0,499.0,486.0,486.0,486.0,486.0,500.0,500.0,500.0,500.0,523.0,523.0,523.0,523.0,517.0,517.0,517.0,517.0,517.0,517.0,503.0,503.0,507.0,507.0,507.0,507.0,502.0,502.0,502.0,502.0,498.0,498.0,498.0,498.0,501.0,501.0,501.0,501.0,501.0,501.0,522.0,522.0,530.0,530.0,530.0,530.0,529.0,529.0,529.0,529.0,511.0,511.0,511.0,511.0,489.0,489.0,489.0,489.0,489.0,489.0,508.0444444444444,505.26666666666665,519.1111111111111,517.0,501.0,489.0,57.0,13.0,41.0,523.0,507.0,530.0
0,500.0,493.0,472.0,500.0,500.0,500.0,500.0,523.0,523.0,523.0,523.0,517.0,517.0,517.0,517.0,517.0,517.0,522.0,522.0,522.0,522.0,505.0,505.0,502.0,502.0,502.0,502.0,498.0,498.0,498.0,498.0,501.0,501.0,501.0,501.0,501.0,501.0,493.0,493.0,493.0,493.0,506.0,506.0,529.0,529.0,529.0,529.0,511.0,511.0,511.0,511.0,489.0,489.0,489.0,489.0,489.0,489.0,473.0,473.0,473.0,473.0,472.0,472.0,507.4,503.6666666666667,512.5555555555555,505.0,506.0,472.0,57.0,18.0,58.0,523.0,506.0,529.0
0,500.0,493.0,472.0,500.0,523.0,523.0,523.0,523.0,517.0,517.0,517.0,517.0,517.0,517.0,522.0,522.0,522.0,522.0,505.0,505.0,505.0,516.0,516.0,502.0,498.0,498.0,498.0,498.0,501.0,501.0,501.0,501.0,501.0,501.0,493.0,493.0,493.0,493.0,506.0,506.0,506.0,507.0,507.0,529.0,511.0,511.0,511.0,511.0,489.0,489.0,489.0,489.0,489.0,489.0,473.0,473.0,473.0,473.0,472.0,472.0,472.0,478.0,478.0,506.4,503.4,509.55555555555554,516.0,507.0,478.0,37.0,17.0,58.0,523.0,507.0,529.0
0,494.0,493.0,472.0,523.0,517.0,517.0,517.0,517.0,517.0,517.0,522.0,522.0,522.0,522.0,505.0,505.0,505.0,516.0,516.0,516.0,516.0,494.0,494.0,498.0,501.0,501.0,501.0,501.0,501.0,501.0,493.0,493.0,493.0,493.0,506.0,506.0,506.0,507.0,507.0,507.0,507.0,515.0,515.0,511.0,489.0,489.0,489.0,489.0,489.0,489.0,473.0,473.0,473.0,473.0,472.0,472.0,472.0,478.0,478.0,478.0,478.0,480.0,480.0,507.2,503.4888888888889,505.64444444444445,494.0,515.0,480.0,37.0,22.0,58.0,523.0,515.0,511.0
0,494.0,493.0,472.0,517.0,517.0,517.0,517.0,522.0,522.0,522.0,522.0,505.0,505.0,505.0,516.0,516.0,516.0,516.0,494.0,494.0,494.0,500.0,500.0,501.0,501.0,501.0,501.0,493.0,493.0,493.0,493.0,506.0,506.0,506.0,507.0,507.0,507.0,507.0,515.0,515.0,515.0,518.0,518.0,489.0,489.0,489.0,489.0,473.0,473.0,473.0,473.0,472.0,472.0,472.0,478.0,478.0,478.0,478.0,480.0,480.0,480.0,476.0,476.0,506.8,504.22222222222223,502.2,500.0,518.0,476.0,37.0,25.0,58.0,522.0,518.0,489.0
0,494.0,493.0,472.0,522.0,522.0,522.0,522.0,505.0,505.0,505.0,516.0,516.0,516.0,516.0,494.0,494.0,494.0,500.0,500.0,500.0,500.0,551.0,551.0,493.0,493.0,493.0,493.0,506.0,506.0,506.0,507.0,507.0,507.0,507.0,515.0,515.0,515.0,518.0,518.0,518.0,518.0,523.0,523.0,473.0,473.0,473.0,473.0,472.0,472.0,472.0,478.0,478.0,478.0,478.0,480.0,480.0,480.0,476.0,476.0,476.0,476.0,480.0,480.0,508.75555555555553,505.5111111111111,497.77777777777777,551.0,523.0,480.0,65.0,30.0,58.0,551.0,523.0,480.0
0,494.0,506.0,472.0,505.0,505.0,505.0,516.0,516.0,516.0,516.0,494.0,494.0,494.0,500.0,500.0,500.0,500.0,551.0,551.0,551.0,551.0,510.0,510.0,506.0,506.0,506.0,507.0,507.0,507.0,507.0,515.0,515.0,515.0,518.0,518.0,518.0,518.0,523.0,523.0,523.0,523.0,530.0,530.0,472.0,472.0,472.0,478.0,478.0,478.0,478.0,480.0,480.0,480.0,476.0,476.0,476.0,476.0,480.0,480.0,480.0,480.0,492.0,492.0,511.2888888888889,507.3333333333333,494.4,510.0,530.0,492.0,65.0,37.0,58.0,551.0,530.0,492.0
0,494.0,507.0,476.0,516.0,516.0,516.0,494.0,494.0,494.0,500.0,500.0,500.0,500.0,551.0,551.0,551.0,551.0,510.0,510.0,510.0,510.0,507.0,507.0,507.0,507.0,507.0,515.0,515.0,515.0,518.0,518.0,518.0,518.0,523.0,523.0,523.0,523.0,530.0,530.0,530.0,530.0,527.0,527.0,478.0,478.0,478.0,480.0,480.0,480.0,476.0,476.0,476.0,476.0,480.0,480.0,480.0,480.0,492.0,492.0,492.0,492.0,510.0,510.0,512.4222222222222,509.5111111111111,492.35555555555555,507.0,527.0,510.0,65.0,37.0,58.0,551.0,530.0,510.0
0,494.0,515.0,476.0,494.0,494.0,500.0,500.0,500.0,500.0,551.0,551.0,551.0,551.0,510.0,510.0,510.0,510.0,507.0,507.0,507.0,507.0,511.0,511.0,515.0,515.0,518.0,518.0,518.0,518.0,523.0,523.0,523.0,523.0,530.0,530.0,530.0,530.0,527.0,527.0,527.0,527.0,524.0,524.0,480.0,480.0,476.0,476.0,476.0,476.0,480.0,480.0,480.0,480.0,492.0,492.0,492.0,492.0,510.0,510.0,510.0,510.0,524.0,524.0,514.1555555555556,511.26666666666665,491.22222222222223,511.0,524.0,524.0,57.0,37.0,57.0,551.0,530.0,524.0
0,500.0,518.0,476.0,500.0,500.0,551.0,551.0,551.0,551.0,510.0,510.0,510.0,510.0,507.0,507.0,507.0,507.0,511.0,511.0,511.0,511.0,507.0,507.0,518.0,518.0,523.0,523.0,523.0,523.0,530.0,530.0,530.0,530.0,527.0,527.0,527.0,527.0,524.0,524.0,524.0,524.0,518.0,518.0,476.0,476.0,480.0,480.0,480.0,480.0,492.0,492.0,492.0,492.0,510.0,510.0,510.0,510.0,524.0,524.0,524.0,524.0,536.0,536.0,514.4444444444445,513.0444444444445,491.7111111111111,507.0,518.0,536.0,57.0,37.0,64.0,551.0,530.0,536.0
0,507.0,515.0,480.0,551.0,551.0,510.0,510.0,510.0,510.0,507.0,507.0,507.0,507.0,511.0,511.0,511.0,511.0,507.0,507.0,507.0,507.0,509.0,509.0,523.0,523.0,530.0,530.0,530.0,530.0,527.0,527.0,527.0,527.0,524.0,524.0,524.0,524.0,518.0,518.0,518.0,518.0,515.0,515.0,480.0,480.0,492.0,492.0,492.0,492.0,510.0,510.0,510.0,510.0,524.0,524.0,524.0,524.0,536.0,536.0,536.0,536.0,547.0,547.0,513.2444444444444,514.6222222222223,494.9111111111111,509.0,515.0,547.0,57.0,37.0,75.0,551.0,530.0,547.0
0,507.0,510.0,492.0,510.0,510.0,507.0,507.0,507.0,507.0,511.0,511.0,511.0,511.0,507.0,507.0,507.0,507.0,509.0,509.0,509.0,509.0,534.0,534.0,530.0,530.0,527.0,527.0,527.0,527.0,524.0,524.0,524.0,524.0,518.0,518.0,518.0,518.0,515.0,515.0,515.0,515.0,510.0,510.0,492.0,492.0,510.0,510.0,510.0,510.0,524.0,524.0,524.0,524.0,536.0,536.0,536.0,536.0,547.0,547.0,547.0,547.0,560.0,560.0,513.6444444444444,515.6444444444444,500.64444444444445,534.0,510.0,560.0,57.0,37.0,88.0,534.0,530.0,560.0
0,506.0,509.0,510.0,507.0,507.0,507.0,507.0,511.0,511.0,511.0,511.0,507.0,507.0,507.0,507.0,509.0,509.0,509.0,534.0,534.0,534.0,506.0,506.0,527.0,527.0,527.0,527.0,524.0,524.0,524.0,524.0,518.0,518.0,518.0,518.0,515.0,515.0,515.0,510.0,510.0,510.0,509.0,509.0,510.0,510.0,510.0,510.0,524.0,524.0,524.0,524.0,536.0,536.0,536.0,536.0,547.0,547.0,547.0,560.0,560.0,560.0,557.0,557.0,513.6666666666666,516.2,504.0888888888889,506.0,509.0,557.0,57.0,37.0,88.0,534.0,527.0,560.0
0,486.0,508.0,524.0,511.0,511.0,511.0,507.0,507.0,507.0,507.0,509.0,509.0,509.0,509.0,534.0,534.0,534.0,506.0,506.0,506.0,506.0,486.0,486.0,524.0,524.0,524.0,518.0,518.0,518.0,518.0,515.0,515.0,515.0,515.0,510.0,510.0,510.0,509.0,509.0,509.0,509.0,508.0,508.0,524.0,524.0,524.0,536.0,536.0,536.0,536.0,547.0,547.0,547.0,547.0,560.0,560.0,560.0,557.0,557.0,557.0,557.0,549.0,549.0,511.75555555555553,517.3555555555556,513.1111111111111,486.0,508.0,549.0,65.0,24.0,88.0,534.0,524.0,560.0
0,486.0,508.0,530.0,507.0,507.0,507.0,507.0,509.0,509.0,509.0,509.0,534.0,534.0,534.0,506.0,506.0,506.0,506.0,486.0,486.0,486.0,506.0,506.0,518.0,518.0,518.0,518.0,515.0,515.0,515.0,515.0,510.0,510.0,510.0,509.0,509.0,509.0,509.0,508.0,508.0,508.0,511.0,511.0,536.0,536.0,536.0,536.0,547.0,547.0,547.0,547.0,560.0,560.0,560.0,557.0,557.0,557.0,557.0,549.0,549.0,549.0,530.0,530.0,510.8888888888889,517.5777777777778,517.1333333333333,506.0,511.0,530.0,65.0,23.0,84.0,534.0,518.0,560.0
0,486.0,508.0,525.0,509.0,509.0,509.0,509.0,534.0,534.0,534.0,506.0,506.0,506.0,506.0,486.0,486.0,486.0,506.0,506.0,506.0,506.0,500.0,500.0,515.0,515.0,515.0,515.0,510.0,510.0,510.0,509.0,509.0,509.0,509.0,508.0,508.0,508.0,511.0,511.0,511.0,511.0,508.0,508.0,547.0,547.0,547.0,547.0,560.0,560.0,560.0,557.0,557.0,557.0,557.0,549.0,549.0,549.0,530.0,530.0,530.0,530.0,525.0,525.0,510.7111111111111,517.4444444444445,521.4444444444445,500.0,508.0,525.0,65.0,22.0,84.0,534.0,515.0,560.0
0,486.0,508.0,518.0,509.0,534.0,534.0,534.0,506.0,506.0,506.0,506.0,486.0,486.0,486.0,506.0,506.0,506.0,506.0,500.0,500.0,500.0,500.0,500.0,515.0,510.0,510.0,510.0,509.0,509.0,509.0,509.0,508.0,508.0,508.0,511.0,511.0,511.0,511.0,508.0,508.0,508.0,508.0,508.0,547.0,560.0,560.0,560.0,557.0,557.0,557.0,557.0,549.0,549.0,549.0,530.0,530.0,530.0,530.0,525.0,525.0,525.0,518.0,518.0,510.84444444444443,516.8444444444444,524.3111111111111,500.0,508.0,518.0,65.0,22.0,84.0,534.0,515.0,560.0
