,emg_prev_0_0,emg_prev_0_1,emg_prev_0_2,emg_prev_0_3,emg_prev_0_4,emg_prev_0_5,emg_prev_0_6,emg_prev_0_7,emg_prev_0_8,emg_prev_0_9,emg_prev_0_10,emg_prev_0_11,emg_prev_0_12,emg_prev_0_13,emg_prev_0_14,emg_prev_0_15,emg_prev_0_16,emg_prev_0_17,emg_prev_0_18,emg_prev_0_19,emg_prev_1_0,emg_prev_1_1,emg_prev_1_2,emg_prev_1_3,emg_prev_1_4,emg_prev_1_5,emg_prev_1_6,emg_prev_1_7,emg_prev_1_8,emg_prev_1_9,emg_prev_1_10,emg_prev_1_11,emg_prev_1_12,emg_prev_1_13,emg_prev_1_14,emg_prev_1_15,emg_prev_1_16,emg_prev_1_17,emg_prev_1_18,emg_prev_1_19,emg_prev_2_0,emg_prev_2_1,emg_prev_2_2,emg_prev_2_3,emg_prev_2_4,emg_prev_2_5,emg_prev_2_6,emg_prev_2_7,emg_prev_2_8,emg_prev_2_9,emg_prev_2_10,emg_prev_2_11,emg_prev_2_12,emg_prev_2_13,emg_prev_2_14,emg_prev_2_15,emg_prev_2_16,emg_prev_2_17,emg_prev_2_18,emg_prev_2_19,emg_med_0,emg_med_1,emg_med_2,emg_min_0,emg_min_1,emg_min_2,emg_0,emg_1,emg_2,emg_max_0,emg_max_1,emg_max_2,emg_ampl_0,emg_ampl_1,emg_ampl_2
0,0.0,0.0,0.0,0.0,0.0,0.0,0.0,0.0,0.0,0.0,0.0,0.0,0.0,0.0,0.0,0.0,0.0,0.0,0.0,0.0,0.0,0.0,0.0,0.0,0.0,0.0,0.0,0.0,0.0,0.0,0.0,0.0,0.0,0.0,0.0,0.0,0.0,0.0,0.0,0.0,0.0,0.0,0.0,0.0,0.0,0.0,0.0,0.0,0.0,0.0,0.0,0.0,0.0,0.0,0.0,0.0,0.0,0.0,0.0,0.0,0.0,0.0,0.0,0.0,0.0,0.0,0.0,0.0,0.0,0.0,0.0,0.0,0.0,0.0,0.0
0,512.0,512.0,512.0,512.0,512.0,511.0,511.0,511.0,511.0,511.0,511.0,511.0,511.0,511.0,511.0,511.0,511.0,511.0,511.0,511.0,1022.0,1022.0,1022.0,1022.0,1022.0,1022.0,1022.0,1022.0,1022.0,1022.0,1022.0,1022.0,1022.0,1022.0,1022.0,1022.0,1022.0,1022.0,1022.0,1022.0,517.0,517.0,517.0,517.0,544.0,544.0,544.0,544.0,544.0,544.0,544.0,544.0,544.0,544.0,544.0,544.0,544.0,544.0,544.0,544.0,511.5,1022.0,530.5,511.0,1022.0,517.0,511.0,1022.0,544.0,512.0,1022.0,544.0,1.0,0.0,27.0
0,511.0,511.0,511.0,511.0,511.0,511.0,511.0,511.0,511.0,511.0,511.0,511.0,511.0,511.0,509.0,509.0,509.0,509.0,509.0,509.0,1022.0,1022.0,1022.0,1022.0,1022.0,1022.0,1022.0,1022.0,1022.0,1022.0,1022.0,1022.0,1022.0,1022.0,1022.0,1022.0,1022.0,1022.0,1022.0,1022.0,544.0,544.0,544.0,544.0,544.0,544.0,544.0,544.0,544.0,544.0,544.0,544.0,544.0,544.0,550.0,550.0,550.0,550.0,550.0,550.0,510.9,1022.0,543.0,509.0,1022.0,544.0,509.0,1022.0,550.0,511.0,1022.0,550.0,3.0,0.0,33.0
0,511.0,511.0,511.0,511.0,509.0,509.0,509.0,509.0,509.0,509.0,509.0,509.0,509.0,509.0,509.0,509.0,509.0,508.0,508.0,508.0,1022.0,1022.0,1022.0,1022.0,1022.0,1022.0,1022.0,1022.0,1022.0,1022.0,1022.0,1022.0,1022.0,1022.0,1022.0,1022.0,1022.0,1022.0,1022.0,1022.0,544.0,544.0,544.0,544.0,550.0,550.0,550.0,550.0,550.0,550.0,550.0,550.0,550.0,550.0,550.0,550.0,550.0,559.0,559.0,559.0,510.0,1022.0,547.0,509.0,1022.0,544.0,509.0,1022.0,550.0,511.0,1022.0,550.0,2.0,0.0,6.0
0,509.0,509.0,509.0,509.0,509.0,509.0,509.0,508.0,508.0,508.0,508.0,508.0,508.0,508.0,508.0,508.0,508.0,508.0,508.0,508.0,1022.0,1022.0,1022.0,1022.0,1022.0,1022.0,1022.0,1022.0,1022.0,1022.0,1022.0,1022.0,1022.0,1022.0,1022.0,0.0,0.0,0.0,0.0,0.0,550.0,550.0,550.0,550.0,550.0,550.0,550.0,559.0,559.0,559.0,559.0,559.0,559.0,559.0,559.0,547.0,547.0,547.0,547.0,547.0,508.73333333333335,953.8666666666667,552.4,508.0,0.0,547.0,508.0,0.0,547.0,509.0,1022.0,559.0,3.0,1022.0,15.0
0,508.0,508.0,508.0,508.0,508.0,508.0,508.0,508.0,508.0,510.0,510.0,510.0,510.0,510.0,510.0,510.0,510.0,510.0,510.0,510.0,0.0,0.0,0.0,0.0,0.0,0.0,0.0,0.0,0.0,0.0,0.0,0.0,0.0,0.0,0.0,0.0,0.0,0.0,0.0,0.0,547.0,547.0,547.0,547.0,547.0,547.0,547.0,547.0,547.0,561.0,561.0,561.0,561.0,561.0,561.0,561.0,561.0,561.0,561.0,561.0,508.6666666666667,170.33333333333334,553.6666666666666,508.0,0.0,547.0,510.0,0.0,561.0,510.0,0.0,561.0,2.0,1022.0,14.0
0,510.0,510.0,510.0,510.0,510.0,510.0,510.0,507.0,507.0,507.0,507.0,507.0,507.0,507.0,507.0,507.0,507.0,508.0,508.0,508.0,0.0,0.0,0.0,0.0,0.0,0.0,0.0,0.0,0.0,0.0,0.0,0.0,0.0,0.0,0.0,0.0,0.0,0.0,0.0,0.0,561.0,561.0,561.0,561.0,561.0,561.0,561.0,575.0,575.0,575.0,575.0,575.0,575.0,575.0,575.0,575.0,575.0,582.0,582.0,582.0,508.8,0.0,564.2666666666667,507.0,0.0,561.0,507.0,0.0,575.0,510.0,0.0,575.0,3.0,0.0,28.0
0,507.0,507.0,507.0,507.0,507.0,507.0,507.0,507.0,508.0,508.0,508.0,508.0,508.0,508.0,508.0,508.0,508.0,508.0,508.0,509.0,0.0,0.0,0.0,0.0,0.0,0.0,0.0,0.0,0.0,0.0,0.0,0.0,0.0,0.0,0.0,0.0,0.0,0.0,0.0,0.0,575.0,575.0,575.0,575.0,575.0,575.0,575.0,575.0,582.0,582.0,582.0,582.0,582.0,582.0,582.0,582.0,582.0,582.0,582.0,557.0,508.2,0.0,572.9,507.0,0.0,575.0,508.0,0.0,582.0,508.0,0.0,582.0,3.0,0.0,21.0
0,508.0,508.0,508.0,508.0,508.0,508.0,508.0,508.0,508.0,508.0,508.0,508.0,509.0,509.0,509.0,509.0,509.0,509.0,508.0,508.0,0.0,0.0,0.0,0.0,0.0,0.0,0.0,0.0,0.0,0.0,0.0,0.0,0.0,0.0,0.0,0.0,0.0,0.0,0.0,0.0,582.0,582.0,582.0,582.0,582.0,582.0,582.0,582.0,582.0,582.0,582.0,582.0,557.0,557.0,557.0,557.0,557.0,557.0,551.0,551.0,507.8666666666667,0.0,573.6333333333333,508.0,0.0,551.0,508.0,0.0,551.0,509.0,0.0,582.0,2.0,0.0,31.0
0,508.0,508.0,508.0,508.0,508.0,508.0,508.0,508.0,508.0,507.0,507.0,507.0,507.0,507.0,507.0,507.0,507.0,507.0,507.0,507.0,0.0,0.0,0.0,0.0,0.0,0.0,0.0,0.0,0.0,0.0,0.0,0.0,0.0,0.0,0.0,0.0,0.0,0.0,0.0,0.0,551.0,551.0,551.0,551.0,551.0,551.0,551.0,551.0,551.0,552.0,552.0,552.0,552.0,552.0,552.0,552.0,552.0,552.0,552.0,552.0,507.8666666666667,0.0,553.5666666666667,507.0,0.0,551.0,507.0,0.0,552.0,508.0,0.0,552.0,2.0,0.0,31.0
0,507.0,507.0,507.0,507.0,507.0,507.0,507.0,506.0,506.0,506.0,506.0,506.0,506.0,506.0,506.0,506.0,506.0,506.0,506.0,506.0,0.0,0.0,0.0,0.0,0.0,0.0,0.0,0.0,0.0,0.0,0.0,0.0,0.0,0.0,0.0,0.0,0.0,0.0,0.0,0.0,552.0,552.0,552.0,552.0,552.0,552.0,552.0,531.0,531.0,531.0,531.0,531.0,531.0,531.0,531.0,531.0,531.0,531.0,531.0,531.0,506.6666666666667,0.0,544.2666666666667,506.0,0.0,531.0,506.0,0.0,531.0,507.0,0.0,552.0,2.0,0.0,21.0
0,506.0,506.0,506.0,506.0,506.0,506.0,506.0,506.0,506.0,506.0,506.0,506.0,506.0,507.0,507.0,507.0,507.0,507.0,507.0,507.0,0.0,0.0,0.0,0.0,0.0,0.0,0.0,0.0,0.0,0.0,0.0,0.0,0.0,0.0,0.0,0.0,0.0,0.0,0.0,0.0,531.0,531.0,531.0,531.0,531.0,531.0,531.0,531.0,531.0,531.0,531.0,531.0,509.0,509.0,509.0,509.0,509.0,509.0,509.0,509.0,506.3666666666667,0.0,532.9666666666667,506.0,0.0,509.0,507.0,0.0,509.0,507.0,0.0,531.0,1.0,0.0,43.0
0,506.0,506.0,506.0,507.0,507.0,507.0,507.0,507.0,507.0,507.0,507.0,507.0,507.0,507.0,507.0,507.0,507.0,507.0,508.0,508.0,0.0,0.0,0.0,0.0,0.0,0.0,0.0,0.0,0.0,0.0,0.0,0.0,0.0,0.0,0.0,0.0,0.0,0.0,0.0,0.0,531.0,531.0,531.0,509.0,509.0,509.0,509.0,509.0,509.0,509.0,509.0,509.0,509.0,509.0,509.0,509.0,509.0,509.0,503.0,503.0,506.56666666666666,0.0,518.5333333333333,506.0,0.0,509.0,507.0,0.0,509.0,507.0,0.0,531.0,1.0,0.0,22.0
0,507.0,507.0,507.0,507.0,507.0,507.0,507.0,507.0,507.0,508.0,508.0,508.0,508.0,508.0,508.0,508.0,508.0,508.0,508.0,508.0,0.0,0.0,0.0,0.0,0.0,0.0,0.0,0.0,0.0,0.0,0.0,0.0,0.0,0.0,0.0,0.0,0.0,0.0,0.0,0.0,509.0,509.0,509.0,509.0,509.0,509.0,509.0,509.0,509.0,503.0,503.0,503.0,503.0,503.0,503.0,503.0,503.0,503.0,503.0,503.0,507.23333333333335,0.0,509.2,507.0,0.0,503.0,508.0,0.0,503.0,508.0,0.0,509.0,2.0,0.0,28.0
0,508.0,508.0,508.0,506.0,506.0,506.0,506.0,506.0,506.0,506.0,506.0,506.0,506.0,506.0,506.0,506.0,509.0,509.0,509.0,509.0,0.0,0.0,0.0,0.0,0.0,0.0,0.0,0.0,0.0,0.0,0.0,0.0,0.0,0.0,0.0,0.0,196.0,196.0,196.0,196.0,503.0,503.0,503.0,509.0,509.0,509.0,509.0,509.0,509.0,509.0,509.0,509.0,509.0,509.0,509.0,509.0,499.0,499.0,499.0,499.0,506.8666666666667,0.0,506.4,506.0,0.0,503.0,506.0,0.0,509.0,508.0,0.0,509.0,2.0,0.0,6.0
0,506.0,506.0,506.0,509.0,509.0,509.0,509.0,509.0,509.0,509.0,509.0,509.0,509.0,509.0,511.0,511.0,511.0,511.0,511.0,511.0,0.0,0.0,0.0,196.0,196.0,196.0,196.0,196.0,196.0,196.0,196.0,196.0,196.0,196.0,1022.0,1022.0,1022.0,1022.0,1022.0,1022.0,509.0,509.0,509.0,499.0,499.0,499.0,499.0,499.0,499.0,499.0,499.0,499.0,499.0,499.0,479.0,479.0,479.0,479.0,479.0,479.0,507.96666666666664,221.2,500.6666666666667,506.0,0.0,479.0,511.0,1022.0,479.0,511.0,1022.0,509.0,5.0,1022.0,30.0
0,511.0,511.0,511.0,511.0,511.0,511.0,511.0,511.0,511.0,511.0,511.0,509.0,509.0,509.0,509.0,509.0,509.0,509.0,509.0,509.0,1022.0,1022.0,1022.0,1022.0,1022.0,1022.0,1022.0,1022.0,1022.0,1022.0,1022.0,1022.0,1022.0,1022.0,1022.0,1022.0,1022.0,1022.0,1022.0,1022.0,479.0,479.0,479.0,479.0,479.0,479.0,479.0,479.0,479.0,479.0,479.0,473.0,473.0,473.0,473.0,473.0,473.0,473.0,473.0,473.0,510.06666666666666,801.7333333333333,483.1333333333333,509.0,1022.0,473.0,509.0,1022.0,473.0,511.0,1022.0,479.0,2.0,826.0,26.0
0,509.0,509.0,509.0,509.0,509.0,509.0,509.0,509.0,509.0,511.0,511.0,511.0,511.0,511.0,511.0,511.0,511.0,511.0,511.0,511.0,1022.0,1022.0,1022.0,1022.0,1022.0,1022.0,1022.0,1022.0,1022.0,1023.0,1023.0,1023.0,1023.0,1023.0,1023.0,1023.0,1023.0,1023.0,1023.0,1023.0,473.0,473.0,473.0,473.0,473.0,473.0,473.0,473.0,473.0,496.0,496.0,496.0,496.0,496.0,496.0,496.0,496.0,496.0,496.0,496.0,510.06666666666666,1022.3666666666667,482.43333333333334,509.0,1022.0,473.0,511.0,1023.0,496.0,511.0,1023.0,496.0,2.0,1.0,23.0
0,511.0,511.0,511.0,511.0,511.0,511.0,511.0,511.0,511.0,511.0,511.0,512.0,512.0,512.0,512.0,512.0,512.0,512.0,512.0,512.0,1023.0,1023.0,1023.0,1023.0,1023.0,1023.0,1023.0,1023.0,1023.0,1023.0,1023.0,1022.0,1022.0,1022.0,1022.0,1022.0,1022.0,1022.0,1022.0,1022.0,496.0,496.0,496.0,496.0,496.0,496.0,496.0,496.0,496.0,496.0,496.0,497.0,497.0,497.0,497.0,497.0,497.0,497.0,497.0,497.0,511.3,1022.7,496.3,511.0,1022.0,496.0,512.0,1022.0,497.0,512.0,1023.0,497.0,1.0,1.0,1.0
0,512.0,512.0,512.0,512.0,512.0,512.0,512.0,512.0,512.0,512.0,512.0,512.0,512.0,512.0,512.0,511.0,511.0,511.0,511.0,511.0,1022.0,1022.0,1022.0,1022.0,1022.0,1022.0,1022.0,1022.0,1022.0,1022.0,1022.0,1022.0,1022.0,1022.0,1022.0,1022.0,1022.0,1022.0,1022.0,1022.0,497.0,497.0,497.0,497.0,497.0,497.0,497.0,497.0,497.0,497.0,497.0,497.0,497.0,497.0,497.0,507.0,507.0,507.0,507.0,507.0,511.6333333333333,1022.2666666666667,497.73333333333335,511.0,1022.0,497.0,511.0,1022.0,507.0,512.0,1022.0,507.0,1.0,1.0,11.0
0,511.0,511.0,511.0,511.0,511.0,511.0,511.0,511.0,509.0,509.0,509.0,509.0,509.0,509.0,509.0,509.0,509.0,509.0,509.0,509.0,1022.0,1022.0,1022.0,1022.0,1022.0,1022.0,1022.0,1022.0,1022.0,1022.0,1022.0,1022.0,1022.0,1022.0,1022.0,1022.0,1022.0,1022.0,1022.0,1022.0,507.0,507.0,507.0,507.0,507.0,507.0,507.0,507.0,522.0,522.0,522.0,522.0,522.0,522.0,522.0,522.0,522.0,522.0,522.0,522.0,510.53333333333336,1022.0,510.0,509.0,1022.0,507.0,509.0,1022.0,522.0,511.0,1022.0,522.0,3.0,0.0,25.0
0,509.0,509.0,509.0,509.0,509.0,508.0,508.0,508.0,508.0,508.0,508.0,508.0,508.0,508.0,508.0,508.0,508.0,508.0,508.0,508.0,1022.0,1022.0,1022.0,1022.0,1022.0,1022.0,1022.0,1022.0,1022.0,1022.0,1022.0,1022.0,1022.0,1022.0,1022.0,1022.0,1022.0,1022.0,1022.0,1022.0,522.0,522.0,522.0,522.0,522.0,536.0,536.0,536.0,536.0,536.0,536.0,548.0,548.0,548.0,548.0,548.0,548.0,548.0,548.0,548.0,508.53333333333336,1022.0,530.9333333333333,508.0,1022.0,522.0,508.0,1022.0,548.0,509.0,1022.0,548.0,1.0,0.0,26.0
0,508.0,508.0,508.0,508.0,508.0,508.0,508.0,508.0,508.0,508.0,508.0,509.0,509.0,509.0,509.0,509.0,509.0,509.0,509.0,509.0,1022.0,1022.0,1022.0,1022.0,1022.0,1022.0,1022.0,1022.0,1022.0,1022.0,1022.0,1022.0,1022.0,1022.0,1022.0,1022.0,1022.0,1022.0,1022.0,1022.0,548.0,548.0,548.0,548.0,548.0,548.0,548.0,548.0,548.0,548.0,537.0,537.0,537.0,537.0,537.0,537.0,537.0,537.0,537.0,537.0,508.23333333333335,1022.0,544.6333333333333,508.0,1022.0,537.0,509.0,1022.0,537.0,509.0,1022.0,548.0,1.0,0.0,12.0
0,509.0,509.0,509.0,509.0,509.0,509.0,509.0,509.0,509.0,509.0,509.0,509.0,509.0,509.0,507.0,507.0,507.0,507.0,507.0,507.0,1022.0,1022.0,1022.0,1022.0,1022.0,1022.0,1022.0,1022.0,1022.0,1022.0,1022.0,1022.0,1022.0,1022.0,1022.0,1022.0,1022.0,1022.0,1022.0,1022.0,537.0,537.0,537.0,537.0,537.0,537.0,537.0,537.0,537.0,537.0,537.0,537.0,537.0,537.0,542.0,542.0,542.0,542.0,542.0,542.0,508.46666666666664,1022.0,541.1666666666666,507.0,1022.0,537.0,507.0,1022.0,542.0,509.0,1022.0,542.0,2.0,0.0,11.0
0,509.0,509.0,509.0,509.0,509.0,507.0,507.0,507.0,507.0,507.0,507.0,507.0,507.0,507.0,507.0,507.0,507.0,507.0,507.0,507.0,1022.0,1022.0,1022.0,1022.0,1022.0,1022.0,1022.0,1022.0,1022.0,1022.0,1022.0,1022.0,1022.0,1022.0,1022.0,1022.0,1022.0,1022.0,1022.0,973.0,537.0,537.0,537.0,537.0,537.0,542.0,542.0,542.0,542.0,542.0,542.0,542.0,542.0,542.0,542.0,542.0,542.0,542.0,542.0,530.0,508.0,1020.3666666666667,539.1,507.0,973.0,530.0,507.0,973.0,530.0,509.0,1022.0,542.0,2.0,49.0,12.0
0,507.0,507.0,507.0,507.0,507.0,507.0,507.0,507.0,507.0,507.0,507.0,507.0,507.0,507.0,507.0,507.0,507.0,507.0,507.0,507.0,1022.0,973.0,973.0,973.0,973.0,973.0,973.0,973.0,973.0,0.0,0.0,0.0,0.0,0.0,0.0,0.0,0.0,0.0,0.0,0.0,542.0,530.0,530.0,530.0,530.0,530.0,530.0,530.0,530.0,535.0,535.0,535.0,535.0,535.0,535.0,535.0,535.0,535.0,535.0,535.0,507.0,666.6333333333333,536.0666666666667,507.0,0.0,530.0,507.0,0.0,535.0,507.0,1022.0,542.0,0.0,1022.0,12.0
0,507.0,507.0,507.0,507.0,507.0,507.0,507.0,507.0,507.0,507.0,507.0,507.0,507.0,507.0,507.0,508.0,508.0,508.0,508.0,508.0,0.0,0.0,0.0,0.0,0.0,0.0,0.0,0.0,0.0,0.0,0.0,0.0,0.0,0.0,0.0,0.0,0.0,0.0,0.0,0.0,535.0,535.0,535.0,535.0,535.0,535.0,535.0,535.0,535.0,535.0,535.0,535.0,535.0,535.0,535.0,524.0,524.0,524.0,524.0,524.0,507.03333333333336,291.9,533.1333333333333,507.0,0.0,524.0,507.0,0.0,535.0,508.0,0.0,535.0,1.0,973.0,11.0
0,508.0,508.0,508.0,508.0,508.0,508.0,508.0,508.0,508.0,508.0,508.0,508.0,507.0,507.0,507.0,507.0,507.0,507.0,507.0,507.0,0.0,0.0,0.0,0.0,0.0,0.0,0.0,0.0,0.0,0.0,0.0,0.0,0.0,0.0,0.0,0.0,0.0,0.0,0.0,0.0,524.0,524.0,524.0,524.0,524.0,524.0,524.0,524.0,524.0,524.0,524.0,524.0,512.0,512.0,512.0,512.0,512.0,512.0,512.0,512.0,507.46666666666664,0.0,525.2666666666667,507.0,0.0,512.0,507.0,0.0,512.0,508.0,0.0,524.0,1.0,0.0,23.0
0,507.0,507.0,507.0,507.0,507.0,507.0,507.0,507.0,507.0,507.0,507.0,507.0,507.0,507.0,507.0,507.0,507.0,507.0,507.0,507.0,0.0,0.0,0.0,0.0,0.0,0.0,0.0,0.0,0.0,0.0,0.0,0.0,0.0,0.0,0.0,0.0,0.0,0.0,0.0,0.0,512.0,512.0,512.0,512.0,512.0,512.0,512.0,512.0,512.0,537.0,537.0,537.0,537.0,537.0,537.0,537.0,537.0,537.0,537.0,537.0,507.1666666666667,0.0,522.3333333333334,507.0,0.0,512.0,507.0,0.0,537.0,507.0,0.0,537.0,1.0,0.0,25.0
0,507.0,507.0,507.0,507.0,507.0,507.0,507.0,507.0,507.0,507.0,507.0,507.0,507.0,507.0,507.0,507.0,507.0,507.0,507.0,507.0,0.0,0.0,0.0,0.0,0.0,0.0,0.0,0.0,0.0,0.0,0.0,0.0,0.0,0.0,0.0,0.0,0.0,0.0,0.0,0.0,537.0,537.0,537.0,537.0,537.0,537.0,537.0,537.0,537.0,537.0,537.0,537.0,537.0,537.0,537.0,533.0,533.0,533.0,533.0,533.0,507.0,0.0,528.2666666666667,507.0,0.0,533.0,507.0,0.0,533.0,507.0,0.0,537.0,0.0,0.0,25.0
0,507.0,507.0,507.0,507.0,507.0,507.0,507.0,507.0,507.0,507.0,507.0,507.0,507.0,507.0,507.0,507.0,507.0,507.0,507.0,507.0,0.0,0.0,0.0,0.0,0.0,0.0,0.0,0.0,0.0,0.0,0.0,0.0,0.0,0.0,0.0,0.0,0.0,0.0,0.0,0.0,537.0,537.0,537.0,537.0,537.0,537.0,537.0,533.0,533.0,533.0,533.0,533.0,533.0,533.0,533.0,533.0,533.0,533.0,533.0,533.0,507.0,0.0,533.8666666666667,507.0,0.0,533.0,507.0,0.0,533.0,507.0,0.0,537.0,0.0,0.0,25.0
0,507.0,507.0,507.0,507.0,507.0,507.0,507.0,507.0,507.0,507.0,507.0,507.0,507.0,507.0,507.0,507.0,507.0,507.0,507.0,507.0,0.0,0.0,0.0,0.0,0.0,0.0,0.0,0.0,0.0,0.0,0.0,0.0,0.0,0.0,0.0,0.0,0.0,0.0,0.0,0.0,533.0,533.0,533.0,533.0,533.0,533.0,533.0,533.0,546.0,546.0,546.0,546.0,546.0,584.0,584.0,584.0,584.0,584.0,584.0,584.0,507.0,0.0,544.7666666666667,507.0,0.0,533.0,507.0,0.0,584.0,507.0,0.0,584.0,0.0,0.0,51.0
0,507.0,507.0,507.0,507.0,507.0,507.0,507.0,507.0,507.0,507.0,507.0,507.0,507.0,507.0,507.0,507.0,505.0,505.0,505.0,505.0,0.0,0.0,0.0,0.0,0.0,0.0,0.0,0.0,0.0,0.0,0.0,0.0,0.0,0.0,0.0,0.0,0.0,0.0,0.0,0.0,546.0,546.0,546.0,546.0,584.0,584.0,584.0,584.0,584.0,584.0,584.0,584.0,584.0,584.0,584.0,584.0,595.0,595.0,595.0,595.0,506.8,0.0,563.9,505.0,0.0,546.0,505.0,0.0,595.0,507.0,0.0,595.0,2.0,0.0,62.0
0,505.0,505.0,505.0,505.0,505.0,505.0,505.0,505.0,504.0,504.0,504.0,504.0,504.0,504.0,504.0,504.0,504.0,504.0,504.0,504.0,0.0,0.0,0.0,0.0,0.0,0.0,0.0,0.0,40.0,40.0,40.0,40.0,40.0,40.0,40.0,40.0,40.0,40.0,40.0,40.0,595.0,595.0,595.0,595.0,595.0,595.0,595.0,595.0,612.0,612.0,612.0,612.0,612.0,612.0,612.0,612.0,612.0,612.0,612.0,612.0,505.1333333333333,13.333333333333334,598.1,504.0,0.0,595.0,504.0,40.0,612.0,505.0,40.0,612.0,3.0,40.0,28.0
0,504.0,504.0,504.0,504.0,504.0,504.0,504.0,504.0,504.0,504.0,504.0,504.0,504.0,504.0,504.0,504.0,504.0,506.0,506.0,506.0,40.0,40.0,40.0,40.0,40.0,40.0,40.0,40.0,40.0,40.0,40.0,40.0,40.0,40.0,40.0,40.0,40.0,1.0,1.0,1.0,612.0,612.0,612.0,612.0,612.0,612.0,612.0,612.0,612.0,612.0,612.0,612.0,612.0,612.0,612.0,612.0,612.0,559.0,559.0,559.0,504.43333333333334,26.766666666666666,602.7333333333333,504.0,1.0,559.0,506.0,1.0,559.0,506.0,40.0,612.0,2.0,40.0,53.0
0,504.0,504.0,504.0,504.0,504.0,504.0,504.0,504.0,504.0,506.0,506.0,506.0,506.0,506.0,506.0,506.0,507.0,507.0,507.0,507.0,40.0,40.0,40.0,40.0,40.0,40.0,40.0,40.0,40.0,1.0,1.0,1.0,1.0,1.0,1.0,1.0,54.0,54.0,54.0,54.0,612.0,612.0,612.0,612.0,612.0,612.0,612.0,612.0,612.0,559.0,559.0,559.0,559.0,559.0,559.0,559.0,549.0,549.0,549.0,549.0,504.8666666666667,32.766666666666666,591.2333333333333,504.0,1.0,549.0,507.0,54.0,549.0,507.0,54.0,612.0,3.0,53.0,63.0
0,506.0,506.0,506.0,507.0,507.0,507.0,507.0,507.0,507.0,507.0,507.0,507.0,507.0,507.0,507.0,507.0,507.0,507.0,507.0,507.0,1.0,1.0,1.0,54.0,54.0,54.0,54.0,54.0,54.0,54.0,54.0,54.0,54.0,138.0,138.0,138.0,138.0,138.0,138.0,138.0,559.0,559.0,559.0,549.0,549.0,549.0,549.0,549.0,549.0,549.0,549.0,549.0,549.0,538.0,538.0,538.0,538.0,538.0,538.0,538.0,506.06666666666666,52.36666666666667,564.2,506.0,1.0,538.0,507.0,138.0,538.0,507.0,138.0,559.0,3.0,137.0,74.0
0,507.0,507.0,507.0,507.0,507.0,507.0,507.0,507.0,507.0,507.0,507.0,507.0,507.0,507.0,507.0,507.0,507.0,507.0,507.0,507.0,54.0,54.0,54.0,54.0,138.0,138.0,138.0,138.0,138.0,138.0,138.0,138.0,138.0,138.0,138.0,138.0,138.0,138.0,138.0,138.0,549.0,549.0,549.0,549.0,538.0,538.0,538.0,538.0,538.0,538.0,538.0,538.0,538.0,538.0,538.0,538.0,538.0,538.0,538.0,538.0,506.9,93.5,544.1333333333333,507.0,54.0,538.0,507.0,138.0,538.0,507.0,138.0,549.0,1.0,137.0,21.0
0,507.0,507.0,507.0,507.0,507.0,507.0,507.0,507.0,507.0,507.0,507.0,508.0,508.0,508.0,508.0,508.0,511.0,511.0,511.0,511.0,138.0,138.0,138.0,138.0,138.0,138.0,138.0,138.0,138.0,138.0,138.0,223.0,223.0,223.0,223.0,223.0,223.0,223.0,223.0,223.0,538.0,538.0,538.0,538.0,538.0,538.0,538.0,538.0,538.0,538.0,538.0,530.0,530.0,530.0,530.0,530.0,519.0,519.0,519.0,519.0,507.43333333333334,146.63333333333333,536.8666666666667,507.0,138.0,519.0,511.0,223.0,519.0,511.0,223.0,538.0,4.0,169.0,30.0
0,508.0,508.0,508.0,508.0,511.0,511.0,511.0,511.0,511.0,511.0,511.0,511.0,511.0,513.0,513.0,513.0,513.0,513.0,513.0,513.0,223.0,223.0,223.0,223.0,223.0,223.0,223.0,223.0,223.0,223.0,223.0,223.0,223.0,266.0,266.0,266.0,266.0,266.0,266.0,266.0,530.0,530.0,530.0,530.0,519.0,519.0,519.0,519.0,519.0,519.0,519.0,519.0,519.0,517.0,517.0,517.0,517.0,517.0,517.0,517.0,509.43333333333334,200.4,526.9,508.0,223.0,517.0,513.0,266.0,517.0,513.0,266.0,530.0,6.0,128.0,21.0
0,513.0,513.0,513.0,513.0,513.0,513.0,513.0,512.0,512.0,512.0,512.0,512.0,512.0,512.0,512.0,512.0,512.0,512.0,512.0,512.0,266.0,266.0,266.0,266.0,266.0,266.0,266.0,1023.0,1023.0,1023.0,1023.0,1023.0,1023.0,1023.0,1023.0,1023.0,1023.0,1023.0,1023.0,1023.0,517.0,517.0,517.0,517.0,517.0,517.0,517.0,492.0,492.0,492.0,492.0,492.0,492.0,492.0,492.0,492.0,492.0,492.0,492.0,492.0,512.2666666666667,509.73333333333335,509.06666666666666,512.0,266.0,492.0,512.0,1023.0,492.0,513.0,1023.0,517.0,2.0,800.0,27.0
0,512.0,512.0,512.0,512.0,512.0,512.0,512.0,512.0,512.0,512.0,512.0,512.0,512.0,512.0,511.0,511.0,511.0,511.0,511.0,511.0,1023.0,1023.0,1023.0,1023.0,1023.0,1023.0,1023.0,1023.0,1023.0,1023.0,1023.0,1023.0,1023.0,1023.0,841.0,841.0,841.0,841.0,841.0,841.0,492.0,492.0,492.0,492.0,492.0,492.0,492.0,492.0,492.0,492.0,492.0,492.0,492.0,492.0,498.0,498.0,498.0,498.0,498.0,498.0,512.1333333333333,796.8666666666667,499.46666666666664,511.0,841.0,492.0,511.0,841.0,498.0,512.0,1023.0,498.0,2.0,757.0,25.0
0,511.0,511.0,511.0,511.0,511.0,511.0,511.0,511.0,511.0,511.0,511.0,511.0,511.0,511.0,511.0,511.0,511.0,511.0,511.0,511.0,1022.0,1022.0,1022.0,1022.0,1022.0,1022.0,1022.0,1022.0,1022.0,1022.0,1022.0,1022.0,1022.0,1022.0,1022.0,1022.0,1022.0,1022.0,1022.0,1022.0,516.0,516.0,516.0,516.0,516.0,516.0,516.0,516.0,516.0,516.0,516.0,516.0,516.0,516.0,516.0,516.0,516.0,516.0,516.0,516.0,511.0,973.7333333333333,511.2,511.0,1022.0,516.0,511.0,1022.0,516.0,511.0,1022.0,516.0,0.0,181.0,18.0
0,511.0,511.0,511.0,511.0,511.0,511.0,511.0,510.0,510.0,510.0,510.0,510.0,510.0,510.0,510.0,510.0,510.0,510.0,510.0,510.0,1022.0,1022.0,1022.0,1022.0,1022.0,1022.0,1022.0,485.0,485.0,485.0,485.0,485.0,485.0,485.0,485.0,485.0,485.0,485.0,485.0,485.0,516.0,516.0,516.0,516.0,516.0,516.0,516.0,469.0,469.0,469.0,469.0,469.0,469.0,469.0,469.0,469.0,469.0,469.0,469.0,469.0,510.56666666666666,789.3,495.6333333333333,510.0,485.0,469.0,510.0,485.0,469.0,511.0,1022.0,516.0,1.0,537.0,47.0
0,510.0,510.0,510.0,510.0,510.0,510.0,510.0,510.0,510.0,510.0,510.0,510.0,510.0,510.0,510.0,510.0,510.0,510.0,510.0,510.0,485.0,485.0,485.0,485.0,1022.0,1022.0,1022.0,1022.0,1022.0,1022.0,1022.0,1022.0,1022.0,1022.0,1022.0,1022.0,1022.0,1022.0,1022.0,1022.0,469.0,469.0,469.0,469.0,501.0,501.0,501.0,501.0,501.0,501.0,501.0,501.0,501.0,501.0,501.0,501.0,501.0,501.0,501.0,501.0,510.0,771.4,486.06666666666666,510.0,485.0,469.0,510.0,1022.0,501.0,510.0,1022.0,501.0,0.0,537.0,32.0
0,510.0,510.0,510.0,510.0,510.0,510.0,510.0,510.0,510.0,510.0,510.0,510.0,510.0,510.0,510.0,510.0,509.0,509.0,509.0,509.0,1022.0,1022.0,1022.0,1022.0,1022.0,1022.0,1022.0,1022.0,1022.0,1022.0,1022.0,1022.0,1022.0,1022.0,1022.0,1022.0,1022.0,1022.0,1022.0,1022.0,501.0,501.0,501.0,501.0,501.0,501.0,501.0,501.0,501.0,501.0,501.0,501.0,501.0,501.0,501.0,501.0,504.0,504.0,504.0,504.0,510.0,968.3,498.96666666666664,509.0,1022.0,501.0,510.0,1022.0,501.0,510.0,1022.0,504.0,0.0,537.0,32.0
0,509.0,509.0,509.0,509.0,508.0,508.0,508.0,508.0,508.0,508.0,508.0,508.0,508.0,508.0,508.0,508.0,508.0,508.0,508.0,508.0,1022.0,1022.0,1022.0,1022.0,672.0,672.0,672.0,672.0,672.0,672.0,672.0,672.0,672.0,672.0,672.0,672.0,672.0,672.0,672.0,672.0,504.0,504.0,504.0,504.0,489.0,489.0,489.0,489.0,489.0,489.0,489.0,489.0,489.0,489.0,489.0,489.0,489.0,489.0,489.0,489.0,508.6333333333333,835.3333333333334,495.5,508.0,672.0,489.0,508.0,672.0,489.0,509.0,1022.0,504.0,2.0,350.0,15.0
0,508.0,508.0,508.0,508.0,508.0,508.0,508.0,508.0,508.0,508.0,508.0,508.0,508.0,508.0,508.0,508.0,506.0,506.0,506.0,506.0,672.0,672.0,672.0,672.0,672.0,672.0,672.0,672.0,672.0,672.0,672.0,672.0,672.0,672.0,672.0,672.0,0.0,0.0,0.0,0.0,489.0,489.0,489.0,489.0,489.0,489.0,489.0,489.0,489.0,489.0,489.0,489.0,489.0,489.0,489.0,489.0,495.0,495.0,495.0,495.0,507.96666666666664,662.2,490.9,506.0,0.0,489.0,506.0,0.0,495.0,508.0,672.0,495.0,3.0,1022.0,15.0
0,506.0,506.0,506.0,506.0,506.0,506.0,506.0,506.0,506.0,507.0,507.0,507.0,507.0,507.0,507.0,507.0,507.0,507.0,507.0,507.0,0.0,0.0,0.0,0.0,0.0,0.0,0.0,0.0,0.0,0.0,0.0,0.0,0.0,0.0,0.0,0.0,0.0,0.0,0.0,0.0,495.0,495.0,495.0,495.0,495.0,495.0,495.0,495.0,495.0,488.0,488.0,488.0,488.0,488.0,488.0,488.0,488.0,488.0,488.0,488.0,507.03333333333336,224.0,490.43333333333334,506.0,0.0,488.0,507.0,0.0,488.0,507.0,0.0,495.0,2.0,672.0,7.0
0,507.0,507.0,507.0,507.0,507.0,507.0,507.0,507.0,507.0,507.0,507.0,507.0,507.0,507.0,507.0,507.0,507.0,507.0,507.0,507.0,0.0,0.0,0.0,0.0,0.0,0.0,0.0,0.0,0.0,0.0,0.0,0.0,0.0,0.0,0.0,0.0,0.0,0.0,0.0,0.0,488.0,488.0,488.0,488.0,529.0,529.0,529.0,529.0,529.0,529.0,529.0,529.0,529.0,529.0,529.0,529.0,529.0,529.0,529.0,529.0,507.0,0.0,507.1333333333333,507.0,0.0,488.0,507.0,0.0,529.0,507.0,0.0,529.0,1.0,0.0,41.0
0,507.0,507.0,507.0,507.0,508.0,508.0,508.0,508.0,508.0,508.0,508.0,508.0,508.0,508.0,508.0,508.0,508.0,508.0,508.0,508.0,0.0,0.0,0.0,0.0,5.0,5.0,5.0,5.0,5.0,5.0,5.0,5.0,5.0,5.0,5.0,5.0,5.0,5.0,5.0,5.0,516.0,516.0,516.0,523.0,523.0,523.0,523.0,523.0,523.0,523.0,523.0,523.0,523.0,523.0,523.0,523.0,523.0,523.0,523.0,523.0,507.43333333333334,2.1666666666666665,523.8,507.0,0.0,516.0,508.0,5.0,523.0,508.0,5.0,523.0,1.0,5.0,13.0
0,508.0,508.0,509.0,509.0,509.0,509.0,509.0,509.0,509.0,508.0,508.0,508.0,508.0,508.0,508.0,508.0,508.0,508.0,508.0,508.0,5.0,5.0,2.0,2.0,2.0,2.0,2.0,2.0,2.0,1.0,1.0,1.0,1.0,1.0,1.0,1.0,1.0,1.0,1.0,1.0,523.0,523.0,510.0,510.0,510.0,510.0,510.0,510.0,510.0,500.0,500.0,500.0,500.0,500.0,500.0,500.0,500.0,500.0,500.0,500.0,508.3,3.033333333333333,512.9666666666667,508.0,1.0,500.0,508.0,1.0,500.0,509.0,5.0,523.0,1.0,4.0,23.0
0,508.0,508.0,508.0,508.0,508.0,508.0,508.0,508.0,508.0,508.0,508.0,508.0,508.0,508.0,508.0,506.0,506.0,506.0,506.0,506.0,1.0,1.0,1.0,1.0,1.0,1.0,1.0,1.0,1.0,1.0,1.0,1.0,1.0,1.0,1.0,1.0,1.0,1.0,1.0,1.0,500.0,500.0,500.0,500.0,500.0,500.0,500.0,500.0,500.0,500.0,500.0,500.0,500.0,500.0,500.0,511.0,511.0,511.0,511.0,511.0,508.1666666666667,1.5666666666666667,505.26666666666665,506.0,1.0,500.0,506.0,1.0,511.0,509.0,2.0,511.0,3.0,4.0,23.0
0,506.0,506.0,506.0,506.0,506.0,506.0,508.0,508.0,508.0,508.0,508.0,508.0,508.0,508.0,508.0,508.0,508.0,508.0,508.0,508.0,1.0,1.0,1.0,1.0,1.0,1.0,42.0,42.0,42.0,42.0,42.0,42.0,42.0,42.0,42.0,42.0,42.0,42.0,42.0,42.0,511.0,511.0,511.0,511.0,511.0,511.0,491.0,491.0,491.0,491.0,491.0,491.0,491.0,491.0,491.0,491.0,491.0,491.0,491.0,491.0,507.26666666666665,18.766666666666666,500.1333333333333,506.0,1.0,491.0,508.0,42.0,491.0,508.0,42.0,511.0,2.0,41.0,20.0
0,508.0,508.0,508.0,508.0,508.0,508.0,508.0,508.0,508.0,508.0,508.0,508.0,508.0,508.0,508.0,508.0,508.0,509.0,509.0,509.0,42.0,42.0,42.0,42.0,42.0,42.0,42.0,42.0,42.0,42.0,68.0,68.0,68.0,68.0,68.0,68.0,68.0,140.0,140.0,140.0,491.0,491.0,491.0,491.0,491.0,491.0,491.0,491.0,491.0,491.0,490.0,490.0,490.0,490.0,490.0,490.0,490.0,466.0,466.0,466.0,507.73333333333335,43.46666666666667,493.4,508.0,42.0,490.0,508.0,68.0,490.0,508.0,68.0,491.0,2.0,67.0,21.0
0,508.0,508.0,508.0,508.0,508.0,509.0,509.0,509.0,509.0,509.0,509.0,509.0,509.0,509.0,509.0,509.0,506.0,506.0,506.0,506.0,68.0,68.0,68.0,68.0,68.0,140.0,140.0,140.0,140.0,140.0,140.0,140.0,140.0,140.0,140.0,140.0,460.0,460.0,460.0,460.0,490.0,490.0,490.0,490.0,490.0,466.0,466.0,466.0,466.0,466.0,466.0,466.0,466.0,466.0,466.0,466.0,471.0,471.0,471.0,471.0,508.26666666666665,116.0,479.4,506.0,68.0,466.0,506.0,460.0,471.0,509.0,460.0,490.0,3.0,418.0,25.0
0,509.0,509.0,509.0,509.0,509.0,509.0,509.0,506.0,506.0,506.0,506.0,506.0,506.0,506.0,506.0,506.0,506.0,507.0,507.0,507.0,140.0,140.0,140.0,140.0,140.0,140.0,140.0,460.0,460.0,460.0,460.0,460.0,460.0,460.0,460.0,460.0,460.0,4.0,4.0,4.0,466.0,466.0,466.0,466.0,466.0,466.0,466.0,471.0,471.0,471.0,471.0,471.0,471.0,471.0,471.0,471.0,471.0,473.0,473.0,473.0,507.6,253.6,472.8,506.0,140.0,466.0,506.0,460.0,471.0,509.0,460.0,471.0,3.0,392.0,24.0
0,506.0,506.0,506.0,506.0,506.0,507.0,507.0,507.0,507.0,507.0,507.0,507.0,507.0,507.0,507.0,510.0,510.0,510.0,510.0,510.0,460.0,460.0,460.0,460.0,460.0,4.0,4.0,4.0,4.0,4.0,4.0,4.0,4.0,4.0,4.0,92.0,92.0,92.0,92.0,92.0,471.0,471.0,471.0,471.0,471.0,473.0,473.0,473.0,473.0,473.0,473.0,473.0,473.0,473.0,473.0,469.0,469.0,469.0,469.0,469.0,507.3,214.66666666666666,470.8333333333333,506.0,4.0,469.0,510.0,92.0,469.0,510.0,460.0,473.0,4.0,456.0,7.0
0,507.0,507.0,507.0,507.0,510.0,510.0,510.0,510.0,510.0,510.0,510.0,510.0,510.0,510.0,510.0,510.0,510.0,510.0,510.0,510.0,4.0,4.0,4.0,92.0,92.0,92.0,92.0,92.0,92.0,92.0,92.0,92.0,92.0,92.0,92.0,92.0,92.0,1022.0,1022.0,1022.0,473.0,473.0,473.0,469.0,469.0,469.0,469.0,469.0,469.0,469.0,469.0,469.0,469.0,469.0,469.0,469.0,469.0,482.0,482.0,482.0,508.46666666666664,142.73333333333332,471.03333333333336,507.0,4.0,469.0,510.0,1022.0,482.0,510.0,1022.0,482.0,4.0,1018.0,13.0
0,510.0,510.0,510.0,510.0,510.0,510.0,510.0,510.0,510.0,510.0,510.0,510.0,509.0,509.0,509.0,509.0,509.0,509.0,509.0,509.0,92.0,1022.0,1022.0,1022.0,1022.0,1022.0,1022.0,1022.0,1022.0,1022.0,1022.0,1022.0,1022.0,1022.0,1022.0,1022.0,1022.0,1022.0,1022.0,1022.0,469.0,482.0,482.0,482.0,482.0,482.0,482.0,482.0,482.0,482.0,482.0,482.0,509.0,509.0,509.0,509.0,509.0,509.0,509.0,509.0,509.8,681.0,482.6333333333333,509.0,92.0,469.0,509.0,1022.0,509.0,510.0,1022.0,509.0,1.0,930.0,40.0
0,509.0,509.0,509.0,509.0,509.0,509.0,510.0,510.0,510.0,510.0,510.0,510.0,510.0,510.0,510.0,510.0,510.0,510.0,510.0,510.0,1022.0,1022.0,1022.0,1022.0,1022.0,1022.0,1022.0,1022.0,1022.0,1022.0,1022.0,1022.0,1022.0,1022.0,1022.0,1022.0,1022.0,1022.0,1022.0,1022.0,509.0,509.0,509.0,509.0,509.0,509.0,501.0,501.0,501.0,501.0,501.0,501.0,501.0,501.0,501.0,501.0,501.0,501.0,501.0,501.0,509.46666666666664,1022.0,505.26666666666665,509.0,1022.0,501.0,510.0,1022.0,501.0,510.0,1022.0,509.0,1.0,0.0,8.0
0,510.0,510.0,510.0,510.0,510.0,510.0,510.0,510.0,510.0,510.0,510.0,510.0,510.0,510.0,510.0,510.0,510.0,510.0,510.0,510.0,1022.0,1022.0,1022.0,1022.0,1022.0,1022.0,1022.0,1022.0,1022.0,1022.0,1022.0,1022.0,1022.0,1022.0,1022.0,1022.0,1022.0,1022.0,1022.0,1022.0,501.0,501.0,501.0,501.0,501.0,487.0,487.0,487.0,487.0,487.0,487.0,487.0,487.0,487.0,487.0,487.0,487.0,487.0,487.0,487.0,510.0,1022.0,494.46666666666664,510.0,1022.0,487.0,510.0,1022.0,487.0,510.0,1022.0,501.0,0.0,0.0,14.0
0,510.0,510.0,510.0,510.0,510.0,510.0,510.0,510.0,510.0,510.0,510.0,510.0,510.0,510.0,510.0,510.0,510.0,510.0,510.0,510.0,1022.0,1022.0,1022.0,1022.0,1022.0,1022.0,1022.0,1022.0,1022.0,1022.0,1022.0,1022.0,1022.0,1022.0,1022.0,1022.0,1022.0,1022.0,1022.0,1022.0,487.0,487.0,487.0,487.0,487.0,487.0,487.0,487.0,487.0,487.0,487.0,487.0,490.0,490.0,490.0,490.0,490.0,490.0,490.0,490.0,510.0,1022.0,487.5,510.0,1022.0,487.0,510.0,1022.0,490.0,510.0,1022.0,490.0,0.0,0.0,3.0
0,510.0,510.0,510.0,510.0,510.0,510.0,510.0,512.0,512.0,512.0,512.0,512.0,512.0,512.0,512.0,512.0,512.0,512.0,512.0,512.0,1022.0,1022.0,1022.0,1022.0,1022.0,1022.0,1022.0,1022.0,1022.0,1022.0,1022.0,1022.0,1022.0,1022.0,1022.0,1022.0,1022.0,1022.0,1022.0,1022.0,490.0,490.0,490.0,490.0,490.0,490.0,490.0,498.0,498.0,498.0,498.0,498.0,498.0,498.0,498.0,498.0,498.0,498.0,498.0,498.0,510.8,1022.0,493.2,510.0,1022.0,490.0,512.0,1022.0,498.0,512.0,1022.0,498.0,2.0,0.0,8.0
0,512.0,512.0,512.0,512.0,512.0,512.0,512.0,512.0,512.0,512.0,512.0,512.0,512.0,512.0,512.0,510.0,510.0,510.0,510.0,510.0,1022.0,1022.0,1022.0,1022.0,1022.0,1022.0,1022.0,1022.0,1022.0,1022.0,1022.0,1022.0,1022.0,1022.0,1022.0,1022.0,1022.0,1022.0,1022.0,1022.0,498.0,498.0,498.0,498.0,498.0,498.0,498.0,498.0,498.0,498.0,498.0,498.0,498.0,498.0,498.0,521.0,521.0,521.0,521.0,521.0,511.46666666666664,1022.0,501.03333333333336,510.0,1022.0,498.0,510.0,1022.0,521.0,512.0,1022.0,521.0,2.0,0.0,31.0
0,512.0,512.0,510.0,510.0,510.0,510.0,510.0,510.0,510.0,510.0,510.0,510.0,510.0,510.0,510.0,510.0,510.0,510.0,510.0,510.0,1022.0,1022.0,1022.0,1022.0,1022.0,1022.0,1022.0,1022.0,1022.0,1022.0,1022.0,1022.0,1022.0,1022.0,1022.0,1022.0,1022.0,1022.0,1022.0,1022.0,498.0,498.0,521.0,521.0,521.0,521.0,521.0,521.0,521.0,521.0,521.0,521.0,521.0,521.0,521.0,521.0,521.0,521.0,521.0,521.0,510.8,1022.0,511.8,510.0,1022.0,498.0,510.0,1022.0,521.0,512.0,1022.0,521.0,2.0,0.0,23.0
0,510.0,510.0,510.0,510.0,510.0,510.0,510.0,510.0,505.0,505.0,505.0,505.0,505.0,507.0,507.0,507.0,507.0,507.0,507.0,507.0,1022.0,1022.0,1022.0,1022.0,1022.0,1022.0,1022.0,1022.0,1022.0,1022.0,1022.0,1022.0,1022.0,298.0,298.0,298.0,298.0,298.0,298.0,298.0,521.0,521.0,521.0,521.0,521.0,521.0,521.0,539.0,539.0,539.0,539.0,539.0,539.0,549.0,549.0,549.0,549.0,549.0,549.0,549.0,508.6666666666667,949.6,526.4666666666667,505.0,298.0,521.0,507.0,298.0,549.0,510.0,1022.0,549.0,7.0,724.0,51.0
0,507.0,507.0,507.0,507.0,507.0,507.0,507.0,507.0,507.0,507.0,508.0,508.0,508.0,508.0,508.0,508.0,508.0,508.0,508.0,508.0,298.0,298.0,298.0,298.0,298.0,298.0,298.0,298.0,298.0,298.0,0.0,0.0,0.0,0.0,0.0,0.0,0.0,0.0,0.0,0.0,549.0,549.0,549.0,549.0,549.0,549.0,549.0,549.0,549.0,549.0,553.0,553.0,553.0,553.0,553.0,553.0,553.0,553.0,553.0,553.0,506.76666666666665,397.4,547.6,507.0,0.0,549.0,508.0,0.0,553.0,508.0,298.0,553.0,3.0,1022.0,14.0
0,508.0,508.0,508.0,508.0,508.0,508.0,508.0,508.0,508.0,508.0,506.0,506.0,506.0,506.0,506.0,506.0,506.0,506.0,506.0,506.0,0.0,0.0,0.0,0.0,0.0,0.0,0.0,0.0,0.0,0.0,0.0,0.0,0.0,0.0,0.0,0.0,0.0,0.0,0.0,0.0,553.0,553.0,553.0,553.0,553.0,553.0,553.0,553.0,553.0,553.0,567.0,567.0,567.0,567.0,567.0,567.0,567.0,567.0,567.0,567.0,507.4,0.0,557.2,506.0,0.0,553.0,506.0,0.0,567.0,508.0,0.0,567.0,2.0,0.0,14.0
0,506.0,506.0,506.0,506.0,506.0,506.0,506.0,506.0,506.0,506.0,506.0,506.0,506.0,506.0,506.0,506.0,506.0,508.0,508.0,508.0,0.0,0.0,0.0,0.0,0.0,0.0,0.0,0.0,0.0,0.0,0.0,0.0,0.0,0.0,0.0,0.0,0.0,0.0,0.0,0.0,567.0,567.0,567.0,567.0,567.0,567.0,567.0,567.0,567.0,567.0,567.0,567.0,567.0,567.0,567.0,567.0,567.0,543.0,543.0,543.0,506.6666666666667,0.0,561.3333333333334,506.0,0.0,543.0,508.0,0.0,543.0,508.0,0.0,567.0,2.0,0.0,24.0
0,506.0,506.0,506.0,506.0,506.0,506.0,508.0,508.0,508.0,508.0,508.0,508.0,508.0,508.0,508.0,508.0,508.0,508.0,508.0,506.0,0.0,0.0,0.0,0.0,0.0,0.0,0.0,0.0,0.0,0.0,0.0,0.0,0.0,0.0,0.0,0.0,0.0,0.0,0.0,0.0,567.0,567.0,567.0,567.0,567.0,567.0,543.0,543.0,543.0,543.0,543.0,543.0,543.0,543.0,543.0,543.0,543.0,543.0,543.0,530.0,506.8666666666667,0.0,555.3666666666667,506.0,0.0,530.0,506.0,0.0,530.0,508.0,0.0,567.0,2.0,0.0,37.0
0,506.0,506.0,506.0,506.0,508.0,508.0,508.0,508.0,508.0,508.0,508.0,508.0,508.0,508.0,508.0,508.0,508.0,508.0,508.0,508.0,0.0,0.0,0.0,0.0,0.0,0.0,0.0,0.0,0.0,0.0,0.0,0.0,0.0,0.0,0.0,0.0,0.0,0.0,0.0,0.0,530.0,530.0,530.0,530.0,528.0,528.0,528.0,528.0,528.0,528.0,528.0,528.0,528.0,528.0,528.0,528.0,528.0,528.0,528.0,528.0,507.53333333333336,0.0,532.4666666666667,506.0,0.0,528.0,508.0,0.0,528.0,508.0,0.0,530.0,2.0,0.0,15.0
0,508.0,508.0,507.0,507.0,507.0,507.0,507.0,507.0,507.0,507.0,507.0,507.0,506.0,506.0,506.0,506.0,506.0,506.0,506.0,506.0,0.0,0.0,0.0,0.0,0.0,0.0,0.0,0.0,0.0,0.0,0.0,0.0,0.0,0.0,0.0,0.0,0.0,0.0,0.0,0.0,528.0,507.0,507.0,507.0,507.0,507.0,507.0,507.0,507.0,507.0,507.0,507.0,529.0,529.0,529.0,529.0,529.0,529.0,529.0,529.0,507.23333333333335,0.0,519.0666666666667,506.0,0.0,507.0,506.0,0.0,529.0,508.0,0.0,529.0,2.0,0.0,22.0
0,506.0,506.0,506.0,506.0,506.0,506.0,506.0,506.0,506.0,506.0,506.0,506.0,506.0,506.0,508.0,508.0,508.0,508.0,508.0,508.0,0.0,0.0,0.0,0.0,0.0,0.0,0.0,0.0,0.0,0.0,0.0,0.0,0.0,0.0,0.0,0.0,0.0,0.0,0.0,0.0,529.0,529.0,529.0,529.0,529.0,529.0,529.0,529.0,529.0,529.0,529.0,529.0,529.0,512.0,512.0,512.0,512.0,512.0,512.0,512.0,506.53333333333336,0.0,520.8666666666667,506.0,0.0,512.0,508.0,0.0,512.0,508.0,0.0,529.0,2.0,0.0,22.0
0,508.0,508.0,508.0,508.0,508.0,508.0,508.0,508.0,508.0,508.0,508.0,508.0,508.0,508.0,508.0,508.0,508.0,508.0,508.0,508.0,0.0,0.0,0.0,0.0,0.0,0.0,0.0,0.0,0.0,0.0,0.0,0.0,0.0,8.0,8.0,8.0,8.0,8.0,8.0,8.0,512.0,512.0,512.0,512.0,512.0,512.0,512.0,512.0,512.0,512.0,512.0,512.0,512.0,499.0,499.0,499.0,499.0,499.0,499.0,499.0,507.46666666666664,1.8666666666666667,513.5,508.0,0.0,499.0,508.0,8.0,499.0,508.0,8.0,512.0,2.0,8.0,30.0
0,508.0,508.0,508.0,508.0,508.0,508.0,508.0,508.0,508.0,508.0,508.0,506.0,506.0,506.0,506.0,506.0,506.0,506.0,506.0,506.0,8.0,8.0,8.0,8.0,8.0,8.0,8.0,8.0,8.0,8.0,8.0,1.0,1.0,1.0,1.0,1.0,1.0,1.0,1.0,1.0,499.0,499.0,499.0,499.0,499.0,499.0,499.0,499.0,499.0,499.0,499.0,509.0,509.0,509.0,509.0,509.0,509.0,509.0,509.0,509.0,507.46666666666664,4.8,503.8333333333333,506.0,1.0,499.0,506.0,1.0,509.0,508.0,8.0,509.0,2.0,8.0,13.0
0,506.0,506.0,506.0,506.0,506.0,506.0,506.0,506.0,506.0,508.0,508.0,508.0,508.0,508.0,508.0,508.0,508.0,508.0,508.0,508.0,1.0,1.0,1.0,1.0,1.0,1.0,1.0,1.0,1.0,26.0,26.0,26.0,26.0,26.0,26.0,26.0,26.0,26.0,26.0,26.0,509.0,509.0,509.0,509.0,509.0,509.0,509.0,509.0,509.0,501.0,501.0,501.0,501.0,501.0,501.0,501.0,501.0,501.0,501.0,501.0,506.6666666666667,8.733333333333333,506.26666666666665,506.0,1.0,501.0,508.0,26.0,501.0,508.0,26.0,509.0,2.0,25.0,10.0
0,508.0,508.0,508.0,508.0,508.0,508.0,508.0,508.0,508.0,508.0,508.0,508.0,508.0,508.0,507.0,507.0,507.0,507.0,507.0,507.0,26.0,26.0,26.0,26.0,26.0,26.0,26.0,26.0,26.0,26.0,26.0,26.0,26.0,26.0,147.0,147.0,147.0,147.0,147.0,147.0,501.0,501.0,501.0,501.0,501.0,501.0,501.0,501.0,501.0,501.0,501.0,501.0,501.0,501.0,495.0,495.0,495.0,495.0,495.0,495.0,507.26666666666665,34.63333333333333,502.6,507.0,26.0,495.0,507.0,147.0,495.0,508.0,147.0,501.0,2.0,146.0,14.0
0,507.0,507.0,507.0,507.0,507.0,507.0,507.0,507.0,507.0,507.0,507.0,507.0,507.0,507.0,507.0,507.0,507.0,507.0,507.0,507.0,147.0,147.0,147.0,147.0,147.0,147.0,147.0,147.0,147.0,479.0,479.0,479.0,479.0,479.0,479.0,479.0,479.0,479.0,479.0,479.0,495.0,495.0,495.0,495.0,495.0,495.0,495.0,495.0,495.0,486.0,486.0,486.0,486.0,486.0,486.0,486.0,486.0,486.0,486.0,486.0,507.1333333333333,230.46666666666667,493.1,507.0,147.0,486.0,507.0,479.0,486.0,507.0,479.0,495.0,1.0,453.0,15.0
0,507.0,507.0,507.0,507.0,507.0,507.0,507.0,507.0,507.0,507.0,507.0,507.0,507.0,507.0,507.0,507.0,507.0,507.0,507.0,507.0,479.0,479.0,479.0,479.0,479.0,479.0,479.0,479.0,479.0,479.0,479.0,479.0,479.0,479.0,479.0,0.0,0.0,0.0,0.0,0.0,486.0,486.0,486.0,486.0,486.0,486.0,486.0,486.0,486.0,486.0,486.0,486.0,486.0,486.0,486.0,500.0,500.0,500.0,500.0,500.0,507.0,370.8666666666667,489.06666666666666,507.0,0.0,486.0,507.0,0.0,500.0,507.0,479.0,500.0,0.0,479.0,14.0
0,507.0,507.0,507.0,507.0,507.0,507.0,507.0,507.0,507.0,507.0,507.0,507.0,507.0,507.0,507.0,507.0,507.0,507.0,507.0,507.0,479.0,479.0,479.0,0.0,0.0,0.0,0.0,0.0,0.0,0.0,0.0,0.0,0.0,0.0,0.0,0.0,0.0,0.0,0.0,0.0,486.0,486.0,486.0,500.0,500.0,500.0,500.0,500.0,500.0,500.0,500.0,490.0,490.0,490.0,490.0,490.0,490.0,490.0,490.0,490.0,507.0,207.56666666666666,492.6,507.0,0.0,486.0,507.0,0.0,490.0,507.0,479.0,500.0,0.0,479.0,14.0
0,507.0,507.0,507.0,507.0,507.0,507.0,507.0,507.0,507.0,507.0,507.0,507.0,507.0,507.0,507.0,508.0,508.0,508.0,508.0,508.0,0.0,0.0,0.0,0.0,0.0,0.0,0.0,0.0,0.0,0.0,0.0,0.0,0.0,0.0,0.0,4.0,4.0,4.0,4.0,4.0,490.0,490.0,490.0,490.0,490.0,490.0,490.0,490.0,490.0,490.0,490.0,490.0,490.0,490.0,490.0,489.0,489.0,489.0,489.0,489.0,507.1666666666667,0.6666666666666666,490.5,507.0,0.0,489.0,508.0,4.0,489.0,508.0,4.0,490.0,1.0,4.0,11.0
0,507.0,507.0,507.0,507.0,507.0,508.0,508.0,508.0,508.0,508.0,508.0,508.0,508.0,511.0,511.0,511.0,511.0,511.0,511.0,511.0,0.0,0.0,0.0,0.0,0.0,4.0,4.0,4.0,4.0,4.0,4.0,4.0,67.0,67.0,67.0,67.0,67.0,67.0,67.0,67.0,490.0,490.0,490.0,490.0,490.0,489.0,489.0,489.0,489.0,489.0,489.0,489.0,497.0,497.0,497.0,497.0,497.0,497.0,497.0,497.0,507.9,10.4,490.56666666666666,507.0,0.0,489.0,511.0,67.0,497.0,511.0,67.0,497.0,4.0,67.0,8.0
0,511.0,511.0,511.0,511.0,511.0,511.0,511.0,511.0,511.0,511.0,511.0,511.0,511.0,511.0,510.0,510.0,510.0,510.0,510.0,510.0,67.0,67.0,67.0,67.0,67.0,67.0,67.0,67.0,67.0,67.0,67.0,67.0,67.0,67.0,263.0,263.0,263.0,263.0,263.0,263.0,497.0,497.0,497.0,497.0,497.0,497.0,497.0,497.0,497.0,497.0,497.0,497.0,497.0,501.0,501.0,501.0,501.0,501.0,501.0,501.0,510.8333333333333,99.66666666666667,497.6666666666667,510.0,67.0,497.0,510.0,263.0,501.0,511.0,263.0,501.0,1.0,196.0,4.0
0,510.0,510.0,510.0,510.0,510.0,510.0,510.0,510.0,510.0,510.0,510.0,510.0,509.0,509.0,509.0,509.0,509.0,509.0,509.0,509.0,263.0,263.0,263.0,263.0,263.0,263.0,263.0,263.0,263.0,263.0,263.0,263.0,1022.0,1022.0,1022.0,1022.0,1022.0,1022.0,1022.0,1022.0,501.0,501.0,501.0,501.0,501.0,501.0,501.0,501.0,501.0,501.0,501.0,501.0,496.0,496.0,496.0,496.0,496.0,496.0,496.0,496.0,510.0,356.8333333333333,499.5,509.0,263.0,496.0,509.0,1022.0,496.0,510.0,1022.0,501.0,2.0,955.0,5.0
0,509.0,509.0,509.0,509.0,509.0,509.0,509.0,509.0,509.0,509.0,512.0,512.0,512.0,512.0,512.0,512.0,512.0,512.0,512.0,512.0,1022.0,1022.0,1022.0,1022.0,1022.0,1022.0,1022.0,1022.0,1022.0,1022.0,1022.0,1022.0,1022.0,1022.0,1022.0,1022.0,1022.0,1022.0,1022.0,1022.0,496.0,496.0,496.0,496.0,496.0,496.0,496.0,496.0,496.0,496.0,495.0,495.0,495.0,495.0,495.0,495.0,495.0,495.0,495.0,495.0,509.93333333333334,920.8,496.4,509.0,1022.0,495.0,512.0,1022.0,495.0,512.0,1022.0,496.0,3.0,759.0,6.0
0,512.0,512.0,512.0,512.0,512.0,512.0,512.0,512.0,512.0,512.0,512.0,512.0,512.0,512.0,512.0,512.0,512.0,510.0,510.0,510.0,1022.0,1022.0,1022.0,1022.0,1022.0,1022.0,1022.0,1022.0,1022.0,1022.0,1022.0,1022.0,1022.0,1022.0,1022.0,1022.0,1022.0,992.0,992.0,992.0,495.0,495.0,495.0,495.0,495.0,495.0,495.0,495.0,495.0,495.0,495.0,495.0,495.0,495.0,495.0,495.0,495.0,501.0,501.0,501.0,511.3666666666667,1020.0,495.56666666666666,510.0,992.0,495.0,510.0,992.0,501.0,512.0,1022.0,501.0,3.0,30.0,6.0
0,512.0,512.0,512.0,512.0,512.0,512.0,512.0,512.0,510.0,510.0,510.0,510.0,510.0,510.0,510.0,510.0,508.0,508.0,508.0,508.0,1022.0,1022.0,1022.0,1022.0,1022.0,1022.0,1022.0,1022.0,992.0,992.0,992.0,992.0,992.0,992.0,992.0,992.0,145.0,145.0,145.0,145.0,495.0,495.0,495.0,495.0,495.0,495.0,495.0,495.0,501.0,501.0,501.0,501.0,501.0,501.0,501.0,501.0,517.0,517.0,517.0,517.0,511.06666666666666,926.3,498.8,508.0,145.0,495.0,508.0,145.0,517.0,512.0,1022.0,517.0,4.0,877.0,22.0
0,508.0,508.0,508.0,508.0,508.0,508.0,508.0,508.0,508.0,508.0,506.0,506.0,506.0,506.0,506.0,506.0,506.0,506.0,506.0,506.0,145.0,145.0,145.0,145.0,145.0,145.0,145.0,145.0,145.0,145.0,923.0,923.0,923.0,923.0,923.0,923.0,923.0,923.0,923.0,923.0,517.0,517.0,517.0,517.0,517.0,517.0,517.0,517.0,517.0,517.0,534.0,534.0,534.0,534.0,534.0,534.0,534.0,534.0,534.0,534.0,507.6,463.1,520.5,506.0,145.0,517.0,506.0,923.0,534.0,508.0,923.0,534.0,4.0,847.0,33.0
0,506.0,506.0,506.0,506.0,506.0,506.0,506.0,506.0,506.0,506.0,506.0,507.0,507.0,507.0,507.0,507.0,507.0,507.0,507.0,507.0,923.0,923.0,923.0,923.0,923.0,923.0,923.0,923.0,923.0,923.0,727.0,727.0,727.0,727.0,727.0,727.0,727.0,727.0,727.0,727.0,534.0,534.0,534.0,534.0,534.0,534.0,534.0,534.0,534.0,534.0,545.0,545.0,545.0,545.0,545.0,545.0,545.0,545.0,545.0,545.0,506.3,864.2,537.3,506.0,727.0,534.0,507.0,727.0,545.0,507.0,923.0,545.0,1.0,196.0,11.0
0,507.0,507.0,507.0,507.0,507.0,507.0,507.0,507.0,506.0,506.0,506.0,506.0,506.0,506.0,506.0,506.0,506.0,506.0,506.0,506.0,727.0,727.0,727.0,727.0,727.0,727.0,727.0,727.0,565.0,565.0,565.0,565.0,565.0,565.0,565.0,565.0,565.0,565.0,565.0,565.0,545.0,545.0,545.0,545.0,545.0,545.0,545.0,545.0,530.0,530.0,530.0,530.0,530.0,530.0,530.0,530.0,530.0,530.0,530.0,530.0,506.6,686.0666666666667,539.2666666666667,506.0,565.0,530.0,506.0,565.0,530.0,507.0,727.0,545.0,1.0,358.0,15.0
0,506.0,506.0,506.0,506.0,506.0,506.0,506.0,507.0,507.0,507.0,507.0,507.0,507.0,507.0,507.0,507.0,507.0,507.0,507.0,507.0,565.0,565.0,565.0,565.0,565.0,565.0,565.0,0.0,0.0,0.0,0.0,0.0,0.0,0.0,0.0,0.0,0.0,0.0,0.0,0.0,530.0,530.0,530.0,530.0,530.0,530.0,530.0,536.0,536.0,536.0,536.0,536.0,536.0,536.0,536.0,536.0,536.0,536.0,536.0,536.0,506.4,339.0,532.4,506.0,0.0,530.0,507.0,0.0,536.0,507.0,565.0,536.0,1.0,565.0,6.0
0,507.0,507.0,507.0,507.0,507.0,507.0,507.0,507.0,507.0,507.0,507.0,507.0,507.0,507.0,507.0,507.0,507.0,507.0,507.0,507.0,0.0,0.0,0.0,0.0,0.0,0.0,0.0,0.0,0.0,0.0,0.0,0.0,0.0,0.0,0.0,0.0,0.0,0.0,0.0,0.0,536.0,536.0,536.0,536.0,536.0,536.0,536.0,527.0,527.0,527.0,527.0,527.0,527.0,527.0,527.0,527.0,527.0,527.0,527.0,527.0,507.0,0.0,532.7,507.0,0.0,527.0,507.0,0.0,527.0,507.0,0.0,536.0,0.0,0.0,9.0
0,507.0,507.0,507.0,507.0,507.0,507.0,507.0,507.0,507.0,507.0,507.0,507.0,507.0,507.0,507.0,507.0,507.0,507.0,507.0,507.0,0.0,0.0,0.0,0.0,0.0,0.0,0.0,0.0,0.0,0.0,0.0,0.0,0.0,0.0,0.0,0.0,0.0,0.0,0.0,0.0,527.0,527.0,527.0,527.0,527.0,515.0,515.0,515.0,515.0,515.0,515.0,515.0,515.0,515.0,515.0,515.0,515.0,515.0,515.0,515.0,507.0,0.0,521.4,507.0,0.0,515.0,507.0,0.0,515.0,507.0,0.0,527.0,0.0,0.0,12.0
0,507.0,507.0,507.0,507.0,507.0,507.0,507.0,507.0,507.0,507.0,504.0,504.0,504.0,504.0,504.0,504.0,504.0,504.0,504.0,504.0,0.0,0.0,0.0,0.0,0.0,0.0,0.0,0.0,0.0,0.0,0.0,0.0,0.0,0.0,0.0,0.0,0.0,0.0,0.0,0.0,515.0,515.0,515.0,515.0,515.0,515.0,515.0,507.0,507.0,510.0,510.0,510.0,510.0,510.0,510.0,510.0,510.0,510.0,510.0,510.0,506.1,0.0,512.7,504.0,0.0,507.0,504.0,0.0,510.0,507.0,0.0,515.0,3.0,0.0,8.0
0,504.0,504.0,504.0,504.0,504.0,504.0,506.0,506.0,506.0,506.0,506.0,506.0,506.0,506.0,506.0,506.0,506.0,506.0,506.0,506.0,0.0,0.0,0.0,0.0,0.0,0.0,0.0,0.0,0.0,0.0,0.0,0.0,11.0,11.0,11.0,11.0,11.0,11.0,11.0,11.0,510.0,510.0,510.0,510.0,510.0,510.0,497.0,497.0,497.0,497.0,497.0,497.0,493.0,493.0,493.0,493.0,493.0,493.0,493.0,493.0,504.8,1.8333333333333333,504.1333333333333,504.0,0.0,493.0,506.0,11.0,493.0,506.0,11.0,510.0,2.0,11.0,17.0
0,506.0,506.0,506.0,506.0,506.0,506.0,506.0,506.0,506.0,506.0,506.0,506.0,507.0,507.0,507.0,507.0,507.0,507.0,507.0,507.0,11.0,11.0,11.0,11.0,11.0,11.0,11.0,11.0,11.0,11.0,11.0,11.0,20.0,20.0,20.0,20.0,20.0,20.0,20.0,20.0,493.0,493.0,493.0,493.0,493.0,493.0,493.0,493.0,493.0,493.0,493.0,493.0,492.0,492.0,492.0,492.0,492.0,492.0,492.0,492.0,506.2,10.233333333333333,493.73333333333335,506.0,11.0,492.0,507.0,20.0,492.0,507.0,20.0,493.0,1.0,20.0,5.0
0,507.0,507.0,507.0,507.0,507.0,507.0,507.0,507.0,507.0,507.0,505.0,505.0,505.0,505.0,505.0,505.0,505.0,505.0,505.0,505.0,20.0,20.0,20.0,20.0,20.0,20.0,20.0,20.0,20.0,20.0,18.0,18.0,18.0,18.0,18.0,18.0,18.0,18.0,18.0,18.0,492.0,492.0,492.0,492.0,492.0,492.0,492.0,492.0,492.0,492.0,486.0,486.0,486.0,486.0,486.0,486.0,486.0,486.0,486.0,486.0,506.3,17.966666666666665,490.56666666666666,505.0,18.0,486.0,505.0,18.0,486.0,507.0,20.0,492.0,2.0,9.0,7.0
0,505.0,505.0,505.0,505.0,505.0,505.0,505.0,505.0,505.0,505.0,505.0,505.0,505.0,505.0,505.0,505.0,505.0,505.0,505.0,505.0,18.0,18.0,18.0,18.0,18.0,18.0,18.0,113.0,113.0,113.0,113.0,113.0,113.0,113.0,113.0,113.0,113.0,113.0,113.0,113.0,486.0,486.0,486.0,486.0,486.0,486.0,486.0,486.0,486.0,486.0,486.0,486.0,486.0,486.0,486.0,486.0,486.0,486.0,486.0,486.0,505.0,56.0,486.0,505.0,18.0,486.0,505.0,113.0,486.0,505.0,113.0,486.0,0.0,95.0,0.0
0,505.0,505.0,505.0,505.0,505.0,505.0,505.0,505.0,505.0,505.0,505.0,505.0,505.0,505.0,506.0,506.0,506.0,506.0,506.0,506.0,113.0,113.0,113.0,113.0,113.0,113.0,113.0,113.0,113.0,113.0,113.0,113.0,113.0,113.0,277.0,277.0,277.0,277.0,277.0,277.0,486.0,486.0,486.0,486.0,486.0,486.0,486.0,486.0,486.0,486.0,486.0,486.0,486.0,486.0,471.0,471.0,471.0,471.0,471.0,471.0,505.2,145.8,483.0,505.0,113.0,471.0,506.0,277.0,471.0,506.0,277.0,486.0,1.0,164.0,15.0
0,506.0,506.0,506.0,506.0,506.0,506.0,506.0,508.0,508.0,508.0,508.0,508.0,508.0,508.0,508.0,508.0,508.0,508.0,508.0,508.0,277.0,277.0,277.0,277.0,277.0,277.0,277.0,566.0,566.0,566.0,566.0,566.0,566.0,566.0,566.0,566.0,566.0,566.0,566.0,566.0,471.0,471.0,471.0,471.0,471.0,471.0,471.0,484.0,484.0,484.0,484.0,484.0,484.0,484.0,484.0,484.0,484.0,484.0,484.0,484.0,506.8,391.3,477.6333333333333,506.0,277.0,471.0,508.0,566.0,484.0,508.0,566.0,484.0,3.0,453.0,15.0
0,508.0,508.0,508.0,508.0,508.0,508.0,508.0,508.0,508.0,508.0,508.0,508.0,508.0,508.0,508.0,508.0,508.0,508.0,508.0,508.0,566.0,566.0,566.0,566.0,566.0,566.0,566.0,566.0,566.0,566.0,566.0,566.0,566.0,616.0,616.0,616.0,616.0,616.0,616.0,616.0,484.0,484.0,484.0,484.0,484.0,484.0,484.0,484.0,484.0,484.0,484.0,484.0,484.0,488.0,488.0,488.0,488.0,488.0,488.0,488.0,507.93333333333334,568.0333333333333,484.5,508.0,566.0,484.0,508.0,616.0,488.0,508.0,616.0,488.0,2.0,339.0,17.0
0,508.0,509.0,509.0,509.0,509.0,509.0,509.0,509.0,509.0,509.0,509.0,509.0,509.0,509.0,509.0,509.0,509.0,509.0,509.0,509.0,616.0,817.0,817.0,817.0,817.0,817.0,817.0,817.0,817.0,817.0,817.0,817.0,817.0,817.0,817.0,817.0,817.0,817.0,817.0,817.0,488.0,486.0,486.0,486.0,486.0,486.0,486.0,486.0,486.0,486.0,486.0,486.0,486.0,486.0,486.0,486.0,486.0,486.0,486.0,486.0,508.6,736.6,486.8,508.0,616.0,486.0,509.0,817.0,486.0,509.0,817.0,488.0,1.0,201.0,2.0
0,509.0,509.0,509.0,509.0,509.0,509.0,509.0,509.0,509.0,509.0,509.0,509.0,509.0,512.0,512.0,512.0,512.0,512.0,512.0,512.0,817.0,817.0,817.0,817.0,817.0,817.0,817.0,817.0,817.0,817.0,817.0,817.0,817.0,828.0,828.0,828.0,828.0,828.0,828.0,828.0,486.0,486.0,486.0,486.0,486.0,486.0,486.0,486.0,486.0,486.0,486.0,486.0,486.0,493.0,493.0,493.0,493.0,493.0,493.0,493.0,509.6,819.2,487.4,509.0,817.0,486.0,512.0,828.0,493.0,512.0,828.0,493.0,4.0,212.0,7.0
0,509.0,512.0,512.0,512.0,512.0,512.0,512.0,512.0,512.0,511.0,511.0,511.0,511.0,511.0,512.0,512.0,512.0,512.0,512.0,512.0,817.0,828.0,828.0,828.0,828.0,828.0,828.0,828.0,828.0,1022.0,1022.0,1022.0,1022.0,1022.0,1021.0,1021.0,1021.0,1021.0,1021.0,1021.0,486.0,493.0,493.0,493.0,493.0,493.0,493.0,493.0,493.0,499.0,499.0,499.0,499.0,499.0,512.0,512.0,512.0,512.0,512.0,512.0,510.6,888.5,494.1666666666667,509.0,817.0,486.0,512.0,1021.0,512.0,512.0,1022.0,512.0,3.0,205.0,26.0
0,512.0,512.0,512.0,512.0,512.0,512.0,512.0,512.0,512.0,512.0,512.0,512.0,512.0,512.0,509.0,509.0,509.0,509.0,509.0,509.0,1021.0,1021.0,1021.0,1021.0,1021.0,1021.0,1021.0,1021.0,1021.0,1021.0,1021.0,1021.0,1021.0,1021.0,1022.0,1022.0,1022.0,1022.0,1022.0,1022.0,512.0,512.0,512.0,512.0,512.0,512.0,512.0,512.0,512.0,512.0,512.0,512.0,512.0,512.0,517.0,517.0,517.0,517.0,517.0,517.0,511.4,1014.9,509.43333333333334,509.0,1021.0,512.0,509.0,1022.0,517.0,512.0,1022.0,517.0,3.0,194.0,24.0
0,512.0,512.0,509.0,509.0,509.0,509.0,509.0,509.0,509.0,509.0,509.0,509.0,509.0,509.0,509.0,509.0,509.0,509.0,509.0,509.0,1021.0,1021.0,1022.0,1022.0,1022.0,1022.0,1022.0,1022.0,1022.0,1022.0,1022.0,1022.0,1022.0,1022.0,1022.0,1022.0,1022.0,1022.0,1022.0,1022.0,512.0,512.0,517.0,517.0,517.0,517.0,517.0,517.0,517.0,517.0,517.0,517.0,517.0,517.0,517.0,517.0,517.0,517.0,517.0,517.0,510.3,1021.5666666666667,514.8333333333334,509.0,1021.0,512.0,509.0,1022.0,517.0,512.0,1022.0,517.0,3.0,1.0,5.0
0,509.0,509.0,509.0,509.0,509.0,509.0,509.0,509.0,509.0,509.0,509.0,509.0,509.0,509.0,509.0,509.0,509.0,509.0,509.0,509.0,1022.0,1022.0,1022.0,1022.0,1022.0,1022.0,1022.0,1015.0,1015.0,1015.0,1015.0,1015.0,1015.0,1015.0,1015.0,1015.0,963.0,963.0,963.0,963.0,517.0,517.0,517.0,517.0,517.0,517.0,517.0,531.0,531.0,531.0,531.0,531.0,531.0,531.0,531.0,531.0,535.0,535.0,535.0,535.0,509.0,1017.7,522.2666666666667,509.0,963.0,517.0,509.0,963.0,535.0,509.0,1022.0,535.0,0.0,59.0,18.0
0,509.0,507.0,507.0,507.0,507.0,507.0,507.0,507.0,507.0,507.0,507.0,507.0,507.0,507.0,507.0,507.0,507.0,507.0,507.0,507.0,963.0,800.0,800.0,800.0,800.0,800.0,800.0,800.0,800.0,800.0,800.0,800.0,800.0,800.0,800.0,800.0,800.0,800.0,800.0,537.0,535.0,534.0,534.0,534.0,534.0,534.0,534.0,534.0,534.0,534.0,534.0,534.0,534.0,534.0,534.0,534.0,534.0,534.0,528.0,528.0,507.8666666666667,874.1,534.2666666666667,507.0,800.0,534.0,507.0,800.0,534.0,509.0,963.0,535.0,2.0,215.0,4.0
0,507.0,507.0,507.0,507.0,507.0,507.0,507.0,507.0,507.0,507.0,507.0,507.0,507.0,507.0,507.0,507.0,507.0,507.0,507.0,507.0,800.0,800.0,537.0,537.0,537.0,537.0,537.0,315.0,315.0,315.0,315.0,315.0,315.0,315.0,315.0,315.0,315.0,315.0,315.0,315.0,534.0,534.0,528.0,528.0,528.0,528.0,528.0,525.0,525.0,525.0,525.0,525.0,525.0,525.0,525.0,525.0,525.0,525.0,525.0,525.0,507.0,546.0,529.1,507.0,315.0,525.0,507.0,315.0,525.0,507.0,800.0,534.0,0.0,485.0,9.0
0,507.0,507.0,507.0,507.0,507.0,507.0,507.0,508.0,508.0,508.0,508.0,508.0,508.0,508.0,508.0,508.0,508.0,508.0,508.0,508.0,315.0,315.0,315.0,315.0,315.0,315.0,315.0,299.0,299.0,299.0,299.0,299.0,299.0,299.0,0.0,0.0,0.0,0.0,0.0,0.0,525.0,525.0,525.0,525.0,525.0,525.0,525.0,538.0,538.0,538.0,538.0,538.0,538.0,538.0,533.0,533.0,533.0,533.0,533.0,533.0,507.43333333333334,248.26666666666668,529.6333333333333,507.0,0.0,525.0,508.0,0.0,533.0,508.0,315.0,538.0,1.0,315.0,13.0
0,508.0,508.0,508.0,508.0,508.0,508.0,508.0,508.0,508.0,508.0,508.0,508.0,508.0,508.0,508.0,508.0,508.0,508.0,508.0,508.0,299.0,0.0,0.0,0.0,0.0,0.0,0.0,0.0,0.0,0.0,0.0,0.0,136.0,136.0,136.0,136.0,136.0,136.0,136.0,136.0,538.0,533.0,533.0,533.0,533.0,533.0,533.0,533.0,533.0,533.0,533.0,533.0,538.0,538.0,538.0,538.0,538.0,538.0,538.0,538.0,507.8333333333333,149.46666666666667,533.8333333333334,508.0,0.0,533.0,508.0,136.0,538.0,508.0,299.0,538.0,1.0,315.0,13.0
0,508.0,508.0,508.0,508.0,508.0,508.0,508.0,508.0,508.0,508.0,508.0,508.0,508.0,508.0,508.0,508.0,508.0,508.0,508.0,508.0,136.0,136.0,136.0,136.0,136.0,136.0,136.0,136.0,136.0,114.0,114.0,114.0,114.0,114.0,114.0,114.0,114.0,114.0,114.0,114.0,538.0,538.0,538.0,538.0,538.0,538.0,538.0,538.0,538.0,523.0,523.0,523.0,523.0,523.0,523.0,523.0,523.0,523.0,523.0,523.0,508.0,126.33333333333333,534.3333333333334,508.0,114.0,523.0,508.0,114.0,523.0,508.0,136.0,538.0,0.0,136.0,15.0
0,508.0,508.0,508.0,508.0,508.0,508.0,508.0,508.0,508.0,508.0,508.0,508.0,508.0,508.0,508.0,508.0,506.0,506.0,506.0,506.0,114.0,114.0,114.0,114.0,114.0,114.0,114.0,114.0,114.0,114.0,114.0,114.0,114.0,114.0,114.0,114.0,1.0,1.0,1.0,1.0,523.0,523.0,523.0,523.0,523.0,523.0,523.0,523.0,523.0,523.0,523.0,523.0,523.0,523.0,523.0,523.0,518.0,518.0,518.0,518.0,507.8,107.1,525.5,506.0,1.0,518.0,506.0,1.0,518.0,508.0,114.0,523.0,2.0,135.0,20.0
0,508.0,508.0,508.0,506.0,506.0,506.0,506.0,506.0,506.0,506.0,506.0,506.0,506.0,506.0,506.0,507.0,507.0,507.0,507.0,507.0,114.0,114.0,114.0,1.0,1.0,1.0,1.0,1.0,1.0,1.0,1.0,1.0,1.0,1.0,1.0,35.0,35.0,35.0,35.0,35.0,523.0,523.0,523.0,518.0,518.0,518.0,518.0,518.0,518.0,518.0,518.0,518.0,518.0,518.0,518.0,524.0,524.0,524.0,524.0,524.0,507.0,56.0,520.7333333333333,506.0,1.0,518.0,506.0,1.0,518.0,508.0,114.0,524.0,2.0,113.0,6.0
0,506.0,506.0,507.0,507.0,507.0,507.0,507.0,507.0,507.0,507.0,507.0,507.0,507.0,507.0,507.0,507.0,507.0,508.0,508.0,508.0,1.0,1.0,35.0,35.0,35.0,35.0,35.0,35.0,35.0,35.0,35.0,35.0,35.0,35.0,35.0,35.0,35.0,277.0,277.0,277.0,518.0,518.0,524.0,524.0,524.0,524.0,524.0,524.0,524.0,524.0,524.0,524.0,524.0,524.0,524.0,524.0,524.0,503.0,503.0,503.0,506.6,21.4,521.6,506.0,1.0,518.0,507.0,35.0,524.0,507.0,35.0,524.0,1.0,34.0,6.0
0,507.0,507.0,507.0,507.0,507.0,507.0,507.0,507.0,508.0,508.0,508.0,508.0,508.0,508.0,508.0,508.0,508.0,506.0,506.0,506.0,35.0,35.0,35.0,35.0,35.0,35.0,35.0,35.0,277.0,277.0,277.0,277.0,277.0,277.0,277.0,277.0,277.0,337.0,337.0,337.0,524.0,524.0,524.0,524.0,524.0,524.0,524.0,524.0,503.0,503.0,503.0,503.0,503.0,503.0,503.0,503.0,503.0,503.0,503.0,503.0,507.2,137.8,515.6,506.0,35.0,503.0,506.0,337.0,503.0,508.0,337.0,524.0,2.0,302.0,21.0
0,508.0,508.0,508.0,506.0,506.0,506.0,506.0,506.0,506.0,506.0,506.0,506.0,506.0,506.0,506.0,506.0,506.0,506.0,506.0,507.0,277.0,277.0,277.0,337.0,337.0,337.0,337.0,337.0,337.0,337.0,337.0,337.0,337.0,337.0,337.0,337.0,337.0,337.0,337.0,376.0,503.0,503.0,503.0,503.0,503.0,503.0,503.0,503.0,503.0,503.0,503.0,503.0,503.0,503.0,503.0,503.0,503.0,503.0,503.0,482.0,506.73333333333335,278.73333333333335,505.8,506.0,277.0,503.0,506.0,337.0,503.0,508.0,337.0,503.0,2.0,302.0,21.0
0,506.0,506.0,506.0,506.0,506.0,506.0,506.0,507.0,507.0,507.0,507.0,507.0,507.0,507.0,507.0,507.0,505.0,505.0,505.0,505.0,337.0,337.0,337.0,337.0,337.0,337.0,337.0,376.0,376.0,376.0,376.0,376.0,376.0,376.0,376.0,376.0,397.0,397.0,397.0,397.0,503.0,503.0,503.0,503.0,503.0,503.0,503.0,482.0,482.0,482.0,482.0,482.0,482.0,482.0,482.0,482.0,472.0,472.0,472.0,472.0,506.1666666666667,356.7,492.56666666666666,505.0,337.0,472.0,505.0,397.0,472.0,507.0,397.0,503.0,2.0,60.0,31.0
0,505.0,505.0,505.0,505.0,505.0,505.0,505.0,505.0,505.0,505.0,505.0,505.0,505.0,505.0,509.0,509.0,509.0,509.0,509.0,509.0,397.0,397.0,397.0,397.0,397.0,397.0,397.0,397.0,397.0,397.0,397.0,397.0,397.0,397.0,405.0,405.0,405.0,405.0,405.0,405.0,472.0,472.0,472.0,472.0,472.0,472.0,472.0,472.0,472.0,472.0,472.0,472.0,472.0,472.0,474.0,474.0,474.0,474.0,474.0,474.0,505.93333333333334,393.8666666666667,474.26666666666665,505.0,397.0,472.0,509.0,405.0,474.0,509.0,405.0,474.0,4.0,29.0,10.0
0,509.0,509.0,509.0,509.0,509.0,509.0,509.0,509.0,509.0,509.0,509.0,509.0,509.0,509.0,511.0,511.0,511.0,511.0,511.0,511.0,405.0,405.0,405.0,405.0,405.0,405.0,405.0,405.0,405.0,405.0,405.0,405.0,405.0,405.0,579.0,579.0,579.0,579.0,579.0,579.0,474.0,474.0,474.0,474.0,474.0,474.0,474.0,474.0,474.0,474.0,474.0,474.0,474.0,474.0,455.0,455.0,455.0,455.0,455.0,455.0,507.8,413.93333333333334,472.06666666666666,509.0,405.0,455.0,511.0,579.0,455.0,511.0,579.0,474.0,6.0,182.0,19.0
0,511.0,511.0,511.0,511.0,511.0,511.0,511.0,510.0,510.0,510.0,510.0,510.0,510.0,510.0,510.0,510.0,510.0,510.0,510.0,510.0,579.0,579.0,579.0,579.0,579.0,579.0,579.0,792.0,792.0,792.0,792.0,792.0,792.0,792.0,792.0,792.0,792.0,792.0,792.0,792.0,455.0,455.0,455.0,455.0,455.0,455.0,455.0,469.0,469.0,469.0,469.0,469.0,469.0,469.0,469.0,469.0,469.0,469.0,469.0,469.0,510.3333333333333,641.0,463.1333333333333,510.0,579.0,455.0,510.0,792.0,469.0,511.0,792.0,469.0,2.0,387.0,19.0
0,510.0,510.0,510.0,510.0,510.0,510.0,510.0,510.0,510.0,510.0,510.0,510.0,511.0,511.0,511.0,511.0,511.0,511.0,511.0,511.0,792.0,792.0,792.0,792.0,792.0,792.0,792.0,792.0,792.0,792.0,792.0,792.0,1022.0,1022.0,1022.0,1022.0,1022.0,1022.0,1022.0,1022.0,469.0,469.0,469.0,469.0,469.0,469.0,469.0,469.0,469.0,469.0,469.0,469.0,395.0,395.0,395.0,395.0,395.0,395.0,395.0,395.0,510.26666666666665,809.0333333333333,455.26666666666665,510.0,792.0,395.0,511.0,1022.0,395.0,511.0,1022.0,469.0,1.0,443.0,74.0
0,511.0,511.0,511.0,511.0,511.0,511.0,511.0,511.0,511.0,511.0,511.0,511.0,511.0,511.0,511.0,512.0,512.0,512.0,512.0,512.0,1022.0,1022.0,1022.0,1022.0,1022.0,1022.0,1022.0,1022.0,1022.0,1022.0,1022.0,1022.0,1022.0,1022.0,1022.0,1022.0,1022.0,1022.0,1022.0,1022.0,395.0,395.0,395.0,395.0,395.0,395.0,395.0,395.0,395.0,395.0,395.0,395.0,395.0,395.0,395.0,434.0,434.0,434.0,434.0,434.0,510.8333333333333,983.6666666666666,407.3333333333333,511.0,1022.0,395.0,511.0,1022.0,395.0,511.0,1022.0,395.0,1.0,230.0,74.0
0,512.0,512.0,512.0,512.0,512.0,512.0,512.0,512.0,512.0,512.0,512.0,512.0,512.0,512.0,512.0,512.0,512.0,512.0,512.0,512.0,1022.0,1022.0,1022.0,1022.0,1022.0,1022.0,1022.0,1022.0,1022.0,1022.0,1022.0,441.0,441.0,441.0,441.0,441.0,441.0,441.0,441.0,441.0,434.0,434.0,434.0,434.0,434.0,434.0,434.0,434.0,434.0,434.0,434.0,449.0,449.0,449.0,449.0,449.0,449.0,449.0,449.0,449.0,511.8333333333333,867.0666666666667,431.5,512.0,441.0,434.0,512.0,441.0,449.0,512.0,1022.0,449.0,1.0,581.0,54.0
0,512.0,512.0,512.0,512.0,512.0,512.0,512.0,512.0,512.0,512.0,512.0,512.0,512.0,510.0,510.0,510.0,510.0,510.0,510.0,510.0,441.0,441.0,441.0,441.0,441.0,441.0,441.0,441.0,441.0,441.0,441.0,441.0,441.0,1022.0,1022.0,1022.0,1022.0,1022.0,1022.0,1022.0,449.0,449.0,449.0,449.0,449.0,449.0,449.0,449.0,449.0,449.0,449.0,449.0,449.0,439.0,439.0,439.0,439.0,439.0,439.0,439.0,511.6,673.4,444.0,510.0,441.0,439.0,510.0,1022.0,439.0,512.0,1022.0,449.0,2.0,581.0,15.0
0,512.0,512.0,512.0,512.0,512.0,510.0,510.0,510.0,510.0,510.0,510.0,510.0,510.0,510.0,510.0,510.0,510.0,510.0,509.0,509.0,441.0,441.0,441.0,441.0,441.0,1022.0,1022.0,1022.0,1022.0,1022.0,1022.0,1022.0,1022.0,1022.0,1022.0,1022.0,1022.0,1022.0,1019.0,1019.0,449.0,449.0,449.0,449.0,449.0,439.0,439.0,439.0,439.0,439.0,439.0,439.0,439.0,439.0,439.0,439.0,439.0,439.0,501.0,501.0,510.93333333333334,731.3,448.1333333333333,509.0,441.0,439.0,509.0,1019.0,501.0,512.0,1022.0,501.0,3.0,581.0,62.0
0,510.0,510.0,510.0,509.0,509.0,509.0,509.0,509.0,509.0,509.0,509.0,509.0,509.0,509.0,509.0,509.0,509.0,509.0,509.0,509.0,1022.0,1022.0,1022.0,1019.0,1019.0,1019.0,1019.0,1019.0,1019.0,1019.0,1019.0,1019.0,886.0,886.0,886.0,886.0,886.0,886.0,886.0,886.0,439.0,439.0,439.0,501.0,501.0,501.0,501.0,501.0,501.0,501.0,501.0,501.0,489.0,489.0,489.0,489.0,489.0,489.0,489.0,489.0,509.53333333333336,970.0,469.6,509.0,886.0,439.0,509.0,886.0,489.0,510.0,1022.0,501.0,3.0,581.0,62.0
0,509.0,509.0,509.0,509.0,509.0,509.0,509.0,509.0,509.0,509.0,509.0,509.0,509.0,509.0,509.0,509.0,509.0,509.0,509.0,509.0,886.0,886.0,886.0,886.0,886.0,886.0,886.0,886.0,886.0,886.0,886.0,886.0,886.0,886.0,886.0,886.0,886.0,1022.0,1022.0,1022.0,489.0,489.0,489.0,489.0,489.0,489.0,489.0,489.0,489.0,489.0,489.0,489.0,489.0,489.0,489.0,489.0,489.0,443.0,443.0,443.0,509.0,921.6666666666666,488.3333333333333,509.0,886.0,443.0,509.0,1022.0,443.0,509.0,1022.0,489.0,0.0,136.0,58.0
0,509.0,509.0,509.0,509.0,509.0,509.0,509.0,509.0,509.0,509.0,509.0,509.0,509.0,508.0,508.0,508.0,508.0,508.0,508.0,508.0,886.0,886.0,886.0,886.0,1022.0,1022.0,1022.0,1022.0,1022.0,1022.0,1022.0,1022.0,834.0,834.0,834.0,834.0,834.0,834.0,834.0,834.0,489.0,489.0,489.0,489.0,443.0,443.0,443.0,443.0,443.0,443.0,443.0,443.0,451.0,451.0,451.0,451.0,451.0,451.0,451.0,451.0,508.8333333333333,922.6666666666666,467.3333333333333,508.0,834.0,443.0,508.0,834.0,451.0,509.0,1022.0,489.0,1.0,188.0,46.0
0,508.0,508.0,508.0,508.0,508.0,508.0,508.0,508.0,508.0,508.0,508.0,508.0,508.0,508.0,508.0,508.0,508.0,508.0,508.0,508.0,834.0,834.0,834.0,834.0,834.0,834.0,834.0,834.0,834.0,834.0,834.0,834.0,834.0,834.0,834.0,148.0,148.0,148.0,148.0,148.0,451.0,451.0,451.0,451.0,451.0,451.0,451.0,451.0,451.0,451.0,451.0,451.0,451.0,451.0,451.0,464.0,464.0,464.0,464.0,464.0,508.3,821.8,449.9,508.0,148.0,451.0,508.0,148.0,464.0,508.0,834.0,464.0,1.0,874.0,21.0
0,508.0,508.0,508.0,508.0,508.0,508.0,508.0,508.0,508.0,508.0,508.0,508.0,508.0,508.0,508.0,508.0,508.0,508.0,508.0,508.0,148.0,148.0,148.0,148.0,148.0,148.0,148.0,148.0,148.0,826.0,826.0,826.0,826.0,826.0,826.0,826.0,826.0,826.0,826.0,826.0,464.0,464.0,464.0,464.0,464.0,464.0,464.0,464.0,464.0,490.0,490.0,490.0,490.0,490.0,490.0,490.0,490.0,490.0,490.0,490.0,508.0,511.2,470.06666666666666,508.0,148.0,464.0,508.0,826.0,490.0,508.0,826.0,490.0,0.0,686.0,39.0
0,508.0,508.0,508.0,508.0,508.0,508.0,508.0,508.0,508.0,508.0,508.0,509.0,509.0,507.0,507.0,507.0,507.0,507.0,507.0,507.0,826.0,826.0,826.0,826.0,826.0,826.0,826.0,826.0,826.0,826.0,826.0,0.0,0.0,0.0,0.0,0.0,0.0,0.0,0.0,0.0,490.0,490.0,490.0,490.0,490.0,490.0,490.0,490.0,490.0,490.0,490.0,482.0,480.0,480.0,480.0,480.0,480.0,480.0,480.0,480.0,507.9,542.8666666666667,484.3333333333333,507.0,0.0,480.0,507.0,0.0,480.0,509.0,826.0,490.0,2.0,826.0,26.0
0,507.0,507.0,507.0,507.0,507.0,507.0,507.0,507.0,507.0,507.0,507.0,507.0,507.0,507.0,507.0,507.0,507.0,507.0,507.0,507.0,0.0,0.0,0.0,0.0,0.0,0.0,0.0,0.0,0.0,0.0,0.0,0.0,0.0,0.0,0.0,0.0,0.0,0.0,0.0,0.0,480.0,480.0,480.0,480.0,480.0,480.0,497.0,497.0,497.0,497.0,497.0,497.0,497.0,497.0,497.0,497.0,497.0,497.0,497.0,497.0,507.0,0.0,486.8,507.0,0.0,480.0,507.0,0.0,497.0,507.0,0.0,497.0,0.0,0.0,17.0
0,507.0,507.0,507.0,507.0,507.0,507.0,507.0,507.0,507.0,507.0,505.0,505.0,505.0,505.0,505.0,505.0,505.0,505.0,505.0,505.0,0.0,0.0,0.0,0.0,0.0,0.0,0.0,0.0,0.0,0.0,0.0,0.0,0.0,0.0,0.0,0.0,0.0,0.0,0.0,0.0,497.0,497.0,497.0,497.0,497.0,497.0,497.0,497.0,497.0,497.0,529.0,529.0,529.0,529.0,529.0,530.0,530.0,530.0,530.0,530.0,506.4,0.0,504.46666666666664,505.0,0.0,497.0,505.0,0.0,530.0,507.0,0.0,530.0,2.0,0.0,50.0
0,505.0,505.0,505.0,505.0,505.0,505.0,505.0,505.0,505.0,505.0,505.0,505.0,505.0,505.0,505.0,506.0,506.0,506.0,506.0,506.0,0.0,0.0,0.0,0.0,0.0,0.0,0.0,0.0,0.0,0.0,0.0,0.0,0.0,0.0,0.0,0.0,0.0,0.0,0.0,0.0,529.0,530.0,530.0,530.0,530.0,530.0,530.0,530.0,530.0,530.0,530.0,530.0,530.0,530.0,530.0,516.0,516.0,516.0,516.0,516.0,505.5,0.0,521.8333333333334,505.0,0.0,516.0,506.0,0.0,516.0,506.0,0.0,530.0,2.0,0.0,33.0
0,505.0,505.0,505.0,505.0,505.0,505.0,506.0,506.0,506.0,506.0,506.0,506.0,506.0,506.0,506.0,506.0,506.0,506.0,506.0,505.0,0.0,0.0,0.0,0.0,0.0,0.0,0.0,0.0,0.0,0.0,0.0,0.0,0.0,0.0,0.0,0.0,0.0,0.0,0.0,0.0,530.0,530.0,530.0,530.0,530.0,516.0,516.0,516.0,516.0,516.0,516.0,516.0,516.0,516.0,516.0,516.0,516.0,516.0,516.0,536.0,505.46666666666664,0.0,523.4666666666667,505.0,0.0,516.0,506.0,0.0,516.0,506.0,0.0,530.0,1.0,0.0,14.0
0,506.0,505.0,505.0,505.0,505.0,505.0,505.0,505.0,505.0,504.0,504.0,504.0,504.0,504.0,504.0,504.0,504.0,504.0,504.0,504.0,0.0,0.0,0.0,0.0,0.0,0.0,0.0,0.0,0.0,0.0,0.0,0.0,0.0,0.0,0.0,0.0,0.0,0.0,0.0,0.0,516.0,536.0,536.0,536.0,536.0,536.0,536.0,536.0,536.0,538.0,538.0,538.0,538.0,538.0,538.0,538.0,538.0,538.0,538.0,538.0,505.03333333333336,0.0,529.3333333333334,504.0,0.0,516.0,504.0,0.0,538.0,506.0,0.0,538.0,2.0,0.0,22.0
0,504.0,504.0,504.0,504.0,504.0,504.0,504.0,508.0,508.0,508.0,508.0,508.0,508.0,508.0,508.0,508.0,508.0,508.0,508.0,508.0,0.0,0.0,0.0,0.0,0.0,0.0,0.0,0.0,0.0,0.0,0.0,0.0,0.0,0.0,0.0,0.0,0.0,0.0,0.0,0.0,538.0,538.0,538.0,538.0,538.0,538.0,538.0,543.0,543.0,543.0,543.0,543.0,543.0,543.0,543.0,543.0,543.0,543.0,543.0,543.0,505.46666666666664,0.0,539.8333333333334,504.0,0.0,538.0,508.0,0.0,543.0,508.0,0.0,543.0,4.0,0.0,5.0
0,508.0,508.0,508.0,508.0,508.0,508.0,508.0,508.0,508.0,508.0,508.0,508.0,508.0,508.0,508.0,509.0,509.0,509.0,509.0,509.0,0.0,0.0,0.0,0.0,0.0,0.0,0.0,0.0,0.0,0.0,0.0,0.0,0.0,0.0,0.0,0.0,0.0,0.0,0.0,0.0,543.0,543.0,543.0,543.0,543.0,543.0,543.0,543.0,543.0,543.0,543.0,543.0,543.0,543.0,543.0,527.0,527.0,527.0,527.0,527.0,507.3666666666667,0.0,541.2666666666667,508.0,0.0,527.0,509.0,0.0,527.0,509.0,0.0,543.0,5.0,0.0,16.0
0,508.0,509.0,509.0,509.0,509.0,509.0,509.0,509.0,509.0,509.0,509.0,509.0,509.0,509.0,509.0,509.0,509.0,509.0,509.0,509.0,0.0,0.0,0.0,0.0,0.0,0.0,0.0,0.0,0.0,0.0,0.0,0.0,0.0,695.0,695.0,695.0,695.0,695.0,695.0,695.0,543.0,527.0,527.0,527.0,527.0,527.0,527.0,527.0,527.0,527.0,527.0,527.0,527.0,536.0,536.0,536.0,536.0,536.0,536.0,536.0,508.6333333333333,162.16666666666666,534.9666666666667,508.0,0.0,527.0,509.0,695.0,536.0,509.0,695.0,543.0,1.0,695.0,16.0
0,509.0,509.0,509.0,509.0,509.0,509.0,509.0,509.0,509.0,509.0,509.0,509.0,509.0,509.0,509.0,509.0,509.0,509.0,509.0,509.0,695.0,695.0,695.0,695.0,695.0,695.0,695.0,695.0,695.0,695.0,695.0,695.0,695.0,695.0,695.0,1022.0,1022.0,1022.0,1022.0,1022.0,536.0,536.0,536.0,536.0,536.0,536.0,536.0,536.0,536.0,536.0,536.0,536.0,536.0,536.0,536.0,531.0,531.0,531.0,531.0,531.0,509.0,519.2,532.8,509.0,695.0,531.0,509.0,1022.0,531.0,509.0,1022.0,536.0,0.0,1022.0,9.0
0,509.0,511.0,511.0,511.0,511.0,511.0,511.0,511.0,511.0,511.0,511.0,511.0,511.0,511.0,511.0,511.0,511.0,511.0,511.0,511.0,1022.0,1022.0,1022.0,1022.0,1022.0,1022.0,1022.0,1022.0,1022.0,1022.0,1022.0,1022.0,1022.0,1022.0,1022.0,1022.0,1022.0,1022.0,1022.0,1022.0,531.0,528.0,528.0,528.0,528.0,528.0,528.0,528.0,528.0,528.0,528.0,528.0,528.0,528.0,528.0,528.0,528.0,528.0,528.0,528.0,510.2,1022.0,529.2,509.0,1022.0,528.0,511.0,1022.0,528.0,511.0,1022.0,531.0,2.0,0.0,3.0
0,511.0,511.0,511.0,511.0,511.0,511.0,511.0,511.0,511.0,511.0,511.0,511.0,511.0,511.0,511.0,510.0,510.0,510.0,510.0,510.0,1022.0,1022.0,1022.0,1022.0,1022.0,1022.0,1022.0,1022.0,1022.0,1022.0,1022.0,1022.0,1022.0,1022.0,1022.0,1022.0,1022.0,1022.0,1022.0,1022.0,528.0,528.0,528.0,528.0,528.0,528.0,528.0,528.0,528.0,528.0,528.0,528.0,528.0,528.0,528.0,510.0,510.0,510.0,510.0,510.0,510.8666666666667,1022.0,525.6,510.0,1022.0,510.0,510.0,1022.0,510.0,511.0,1022.0,528.0,1.0,0.0,18.0
0,510.0,510.0,510.0,510.0,510.0,510.0,510.0,510.0,509.0,509.0,509.0,509.0,509.0,509.0,509.0,509.0,509.0,509.0,509.0,509.0,1022.0,1022.0,1022.0,1022.0,1022.0,1022.0,1022.0,1022.0,1022.0,1022.0,1022.0,1022.0,1022.0,1022.0,1022.0,1022.0,1022.0,1022.0,1022.0,1022.0,510.0,510.0,510.0,510.0,510.0,510.0,510.0,510.0,521.0,521.0,521.0,521.0,521.0,521.0,521.0,521.0,521.0,521.0,521.0,521.0,509.8666666666667,1022.0,517.0333333333333,509.0,1022.0,510.0,509.0,1022.0,521.0,510.0,1022.0,521.0,2.0,0.0,18.0
0,509.0,509.0,509.0,509.0,509.0,509.0,509.0,509.0,509.0,509.0,512.0,512.0,510.0,510.0,510.0,510.0,510.0,510.0,510.0,510.0,1022.0,1022.0,1022.0,1022.0,1022.0,1022.0,1022.0,1022.0,1022.0,1022.0,1022.0,1022.0,1022.0,1022.0,1022.0,1022.0,1022.0,1022.0,1022.0,1022.0,521.0,521.0,521.0,521.0,521.0,521.0,521.0,521.0,521.0,521.0,516.0,516.0,508.0,508.0,508.0,508.0,508.0,508.0,508.0,508.0,509.56666666666666,1022.0,517.1666666666666,509.0,1022.0,508.0,510.0,1022.0,508.0,512.0,1022.0,521.0,3.0,0.0,13.0
0,510.0,510.0,510.0,510.0,510.0,510.0,510.0,510.0,510.0,510.0,510.0,510.0,510.0,510.0,510.0,510.0,510.0,510.0,510.0,510.0,1022.0,1022.0,1022.0,1022.0,1022.0,1022.0,1022.0,1022.0,1022.0,1022.0,1022.0,1022.0,1022.0,1022.0,1022.0,1022.0,1022.0,1022.0,1022.0,1022.0,508.0,508.0,508.0,508.0,508.0,508.0,508.0,482.0,482.0,482.0,482.0,482.0,482.0,482.0,482.0,482.0,482.0,482.0,482.0,482.0,510.0,1022.0,501.06666666666666,510.0,1022.0,482.0,510.0,1022.0,482.0,510.0,1022.0,508.0,0.0,0.0,26.0
0,510.0,510.0,510.0,510.0,510.0,510.0,510.0,510.0,510.0,510.0,510.0,510.0,510.0,510.0,510.0,510.0,510.0,510.0,510.0,510.0,1022.0,1022.0,1022.0,1022.0,1022.0,1022.0,1022.0,1022.0,1022.0,1022.0,1022.0,1022.0,1022.0,1022.0,1022.0,1022.0,1022.0,1022.0,1022.0,1022.0,482.0,482.0,482.0,482.0,482.0,482.0,482.0,482.0,482.0,482.0,482.0,482.0,482.0,482.0,482.0,482.0,482.0,497.0,497.0,497.0,510.0,1022.0,490.8,510.0,1022.0,482.0,510.0,1022.0,497.0,510.0,1022.0,497.0,0.0,0.0,26.0
0,510.0,510.0,510.0,510.0,510.0,507.0,507.0,507.0,507.0,507.0,507.0,507.0,507.0,507.0,507.0,507.0,507.0,507.0,507.0,507.0,1022.0,1022.0,1022.0,1022.0,1022.0,1022.0,1022.0,1022.0,1022.0,1022.0,1022.0,1022.0,1022.0,1022.0,1022.0,1022.0,1022.0,1022.0,1022.0,1022.0,497.0,497.0,497.0,497.0,497.0,518.0,518.0,518.0,518.0,518.0,518.0,518.0,518.0,518.0,518.0,518.0,518.0,518.0,518.0,518.0,508.7,1022.0,505.6,507.0,1022.0,497.0,507.0,1022.0,518.0,510.0,1022.0,518.0,3.0,0.0,36.0
0,507.0,507.0,507.0,507.0,507.0,507.0,507.0,507.0,507.0,507.0,507.0,507.0,507.0,507.0,507.0,507.0,507.0,511.0,511.0,511.0,671.0,671.0,671.0,671.0,0.0,0.0,0.0,0.0,0.0,0.0,0.0,0.0,0.0,0.0,0.0,0.0,0.0,0.0,0.0,0.0,521.0,521.0,521.0,521.0,537.0,537.0,537.0,537.0,537.0,537.0,537.0,537.0,537.0,537.0,537.0,537.0,537.0,535.0,535.0,535.0,507.0,439.76666666666665,527.7666666666667,507.0,0.0,521.0,507.0,0.0,537.0,507.0,671.0,537.0,0.0,1022.0,19.0
0,511.0,511.0,511.0,511.0,511.0,511.0,511.0,511.0,511.0,509.0,509.0,509.0,509.0,509.0,509.0,509.0,509.0,509.0,509.0,509.0,0.0,0.0,0.0,0.0,0.0,0.0,0.0,0.0,0.0,0.0,0.0,0.0,0.0,0.0,0.0,0.0,0.0,0.0,0.0,0.0,535.0,535.0,535.0,535.0,535.0,535.0,535.0,535.0,535.0,531.0,531.0,531.0,531.0,531.0,531.0,531.0,531.0,531.0,531.0,531.0,509.46666666666664,0.0,534.2,509.0,0.0,531.0,509.0,0.0,531.0,511.0,0.0,535.0,4.0,0.0,6.0
0,509.0,509.0,509.0,509.0,509.0,509.0,509.0,509.0,509.0,509.0,509.0,509.0,509.0,509.0,509.0,509.0,509.0,509.0,509.0,509.0,0.0,0.0,0.0,0.0,0.0,0.0,0.0,0.0,0.0,0.0,0.0,0.0,0.0,0.0,0.0,0.0,0.0,0.0,0.0,0.0,531.0,531.0,531.0,531.0,531.0,531.0,531.0,531.0,531.0,531.0,513.0,513.0,513.0,513.0,513.0,513.0,513.0,513.0,513.0,513.0,509.2,0.0,525.4,509.0,0.0,513.0,509.0,0.0,513.0,509.0,0.0,531.0,2.0,0.0,22.0
0,509.0,509.0,509.0,509.0,509.0,509.0,509.0,509.0,509.0,508.0,508.0,508.0,508.0,508.0,507.0,507.0,507.0,507.0,507.0,507.0,0.0,0.0,0.0,0.0,0.0,0.0,0.0,0.0,0.0,0.0,0.0,0.0,0.0,0.0,0.0,0.0,0.0,0.0,0.0,0.0,513.0,513.0,513.0,513.0,513.0,513.0,513.0,513.0,513.0,509.0,509.0,509.0,509.0,509.0,510.0,510.0,510.0,510.0,510.0,510.0,508.6,0.0,517.3,507.0,0.0,509.0,507.0,0.0,510.0,509.0,0.0,513.0,2.0,0.0,22.0
0,507.0,507.0,507.0,507.0,507.0,507.0,507.0,507.0,507.0,507.0,507.0,507.0,507.0,507.0,507.0,507.0,507.0,507.0,506.0,506.0,0.0,0.0,0.0,0.0,0.0,0.0,0.0,0.0,0.0,0.0,0.0,0.0,0.0,0.0,0.0,0.0,0.0,0.0,0.0,0.0,510.0,510.0,510.0,510.0,510.0,510.0,510.0,510.0,510.0,510.0,510.0,510.0,510.0,510.0,510.0,510.0,510.0,510.0,513.0,513.0,507.53333333333336,0.0,510.3,507.0,0.0,509.0,507.0,0.0,510.0,508.0,0.0,510.0,2.0,0.0,4.0
0,507.0,507.0,507.0,507.0,507.0,506.0,506.0,506.0,506.0,506.0,506.0,506.0,506.0,506.0,508.0,508.0,508.0,508.0,508.0,508.0,0.0,0.0,0.0,0.0,0.0,0.0,0.0,0.0,0.0,0.0,0.0,0.0,0.0,0.0,0.0,0.0,0.0,0.0,0.0,0.0,510.0,510.0,510.0,510.0,510.0,513.0,513.0,513.0,513.0,513.0,513.0,513.0,513.0,513.0,508.0,508.0,508.0,508.0,508.0,508.0,506.73333333333335,0.0,510.9,506.0,0.0,508.0,508.0,0.0,508.0,508.0,0.0,513.0,2.0,0.0,5.0
0,506.0,508.0,508.0,508.0,508.0,508.0,508.0,508.0,508.0,508.0,508.0,508.0,508.0,507.0,507.0,507.0,507.0,507.0,507.0,507.0,0.0,0.0,0.0,0.0,0.0,0.0,0.0,0.0,0.0,0.0,0.0,0.0,0.0,0.0,0.0,0.0,0.0,0.0,0.0,0.0,513.0,508.0,508.0,508.0,508.0,508.0,508.0,508.0,508.0,508.0,508.0,508.0,508.0,500.0,500.0,500.0,500.0,500.0,500.0,500.0,507.1,0.0,508.8333333333333,506.0,0.0,500.0,507.0,0.0,500.0,508.0,0.0,513.0,2.0,0.0,13.0
0,507.0,507.0,507.0,507.0,507.0,507.0,507.0,507.0,507.0,506.0,506.0,506.0,506.0,506.0,506.0,506.0,506.0,506.0,506.0,506.0,0.0,0.0,0.0,0.0,0.0,0.0,0.0,0.0,0.0,0.0,0.0,0.0,0.0,0.0,0.0,0.0,0.0,0.0,0.0,0.0,500.0,500.0,500.0,500.0,500.0,500.0,500.0,500.0,500.0,501.0,501.0,501.0,501.0,501.0,501.0,501.0,501.0,501.0,501.0,501.0,506.6666666666667,0.0,500.3333333333333,506.0,0.0,500.0,506.0,0.0,501.0,507.0,0.0,501.0,1.0,0.0,1.0
0,506.0,506.0,506.0,506.0,506.0,506.0,506.0,506.0,506.0,506.0,505.0,505.0,505.0,505.0,505.0,505.0,505.0,505.0,508.0,508.0,0.0,0.0,0.0,0.0,0.0,0.0,0.0,0.0,0.0,0.0,0.0,0.0,0.0,0.0,0.0,0.0,0.0,0.0,1010.0,1010.0,501.0,501.0,501.0,501.0,501.0,501.0,501.0,501.0,501.0,501.0,499.0,499.0,499.0,499.0,499.0,499.0,499.0,499.0,514.0,514.0,505.9,0.0,500.2,505.0,0.0,499.0,505.0,0.0,499.0,506.0,0.0,501.0,2.0,0.0,2.0
0,505.0,505.0,505.0,505.0,508.0,508.0,508.0,508.0,508.0,508.0,508.0,508.0,508.0,508.0,510.0,510.0,510.0,510.0,510.0,510.0,0.0,0.0,0.0,0.0,1010.0,1010.0,1010.0,1010.0,1010.0,1010.0,1010.0,1010.0,1010.0,1010.0,1022.0,1022.0,1022.0,1022.0,1022.0,1022.0,499.0,499.0,499.0,499.0,514.0,514.0,514.0,514.0,514.0,514.0,514.0,514.0,514.0,514.0,516.0,516.0,516.0,516.0,516.0,516.0,506.96666666666664,506.6,507.1666666666667,505.0,0.0,499.0,510.0,1022.0,516.0,510.0,1022.0,516.0,5.0,1022.0,17.0
0,510.0,510.0,510.0,510.0,510.0,510.0,510.0,510.0,510.0,510.0,510.0,510.0,510.0,510.0,510.0,510.0,511.0,511.0,511.0,511.0,1022.0,1022.0,1022.0,1022.0,1022.0,1022.0,1022.0,1022.0,1022.0,1022.0,1022.0,1022.0,1022.0,1022.0,1022.0,1022.0,1022.0,1022.0,1022.0,1022.0,516.0,516.0,516.0,516.0,516.0,516.0,516.0,516.0,516.0,516.0,516.0,516.0,516.0,516.0,516.0,516.0,526.0,526.0,526.0,526.0,509.43333333333334,1018.0,516.3333333333334,510.0,1022.0,516.0,511.0,1022.0,526.0,511.0,1022.0,526.0,3.0,12.0,12.0
0,510.0,510.0,510.0,510.0,510.0,510.0,511.0,511.0,511.0,511.0,511.0,511.0,511.0,511.0,511.0,511.0,511.0,511.0,511.0,511.0,1022.0,1022.0,1022.0,1022.0,1022.0,1022.0,1022.0,1022.0,1022.0,1022.0,1022.0,1022.0,1022.0,1022.0,1022.0,1022.0,1022.0,1022.0,1022.0,1022.0,516.0,516.0,516.0,516.0,516.0,516.0,526.0,526.0,526.0,526.0,526.0,526.0,526.0,526.0,526.0,526.0,526.0,539.0,539.0,539.0,510.46666666666664,1022.0,521.1,510.0,1022.0,516.0,511.0,1022.0,539.0,511.0,1022.0,539.0,1.0,0.0,23.0
0,511.0,511.0,511.0,511.0,511.0,511.0,511.0,511.0,511.0,511.0,511.0,510.0,510.0,510.0,510.0,510.0,510.0,510.0,510.0,510.0,1022.0,1022.0,1022.0,1022.0,1022.0,1022.0,1022.0,1022.0,1022.0,1022.0,1022.0,1022.0,1022.0,1022.0,1022.0,1022.0,1022.0,1022.0,1022.0,1022.0,539.0,539.0,539.0,539.0,539.0,539.0,539.0,539.0,539.0,539.0,539.0,534.0,534.0,534.0,534.0,534.0,534.0,534.0,534.0,534.0,510.73333333333335,1022.0,535.9333333333333,510.0,1022.0,534.0,510.0,1022.0,534.0,511.0,1022.0,539.0,1.0,0.0,13.0
0,510.0,510.0,510.0,510.0,510.0,510.0,510.0,510.0,510.0,510.0,510.0,510.0,510.0,510.0,512.0,512.0,512.0,512.0,512.0,512.0,1022.0,1022.0,1022.0,1022.0,1022.0,1022.0,1022.0,1022.0,1022.0,1022.0,1022.0,1022.0,1022.0,1022.0,1022.0,1022.0,1022.0,1022.0,1022.0,1022.0,534.0,534.0,534.0,534.0,534.0,534.0,534.0,534.0,534.0,534.0,534.0,534.0,534.0,534.0,527.0,527.0,527.0,527.0,527.0,527.0,510.56666666666666,1022.0,533.4333333333333,510.0,1022.0,527.0,512.0,1022.0,527.0,512.0,1022.0,534.0,2.0,0.0,12.0
0,510.0,510.0,510.0,510.0,510.0,510.0,510.0,512.0,512.0,512.0,512.0,512.0,512.0,512.0,512.0,512.0,512.0,512.0,512.0,512.0,1022.0,1022.0,1022.0,1022.0,1022.0,1022.0,1022.0,1022.0,1022.0,1022.0,1022.0,1022.0,1022.0,1022.0,1022.0,1022.0,1022.0,1022.0,1022.0,1022.0,534.0,534.0,534.0,534.0,534.0,534.0,534.0,527.0,527.0,527.0,527.0,527.0,527.0,527.0,527.0,527.0,527.0,527.0,527.0,527.0,510.8666666666667,1022.0,530.9666666666667,510.0,1022.0,527.0,512.0,1022.0,527.0,512.0,1022.0,534.0,2.0,0.0,7.0
0,512.0,512.0,512.0,512.0,512.0,512.0,512.0,512.0,512.0,512.0,512.0,512.0,512.0,512.0,512.0,512.0,510.0,510.0,510.0,510.0,1022.0,1022.0,1022.0,1022.0,1022.0,1022.0,1022.0,1022.0,1022.0,1022.0,1022.0,1022.0,1022.0,1022.0,1022.0,1022.0,1022.0,1022.0,1022.0,1022.0,527.0,527.0,527.0,527.0,527.0,527.0,520.0,520.0,520.0,520.0,520.0,520.0,520.0,520.0,520.0,520.0,532.0,532.0,532.0,532.0,511.53333333333336,1022.0,526.1666666666666,510.0,1022.0,520.0,510.0,1022.0,532.0,512.0,1022.0,532.0,2.0,0.0,14.0
0,512.0,510.0,510.0,510.0,510.0,510.0,510.0,510.0,510.0,510.0,510.0,510.0,510.0,509.0,509.0,509.0,509.0,509.0,509.0,509.0,1022.0,1022.0,1022.0,1022.0,1022.0,1022.0,1022.0,1022.0,1022.0,1022.0,1022.0,1022.0,1022.0,1022.0,1022.0,1022.0,1022.0,1022.0,1022.0,1022.0,520.0,532.0,532.0,532.0,532.0,532.0,532.0,532.0,532.0,532.0,532.0,532.0,532.0,533.0,533.0,533.0,533.0,533.0,533.0,533.0,510.6333333333333,1022.0,527.8333333333334,509.0,1022.0,520.0,509.0,1022.0,533.0,512.0,1022.0,533.0,3.0,0.0,13.0
0,509.0,509.0,509.0,509.0,509.0,509.0,509.0,509.0,509.0,509.0,509.0,509.0,509.0,509.0,509.0,509.0,510.0,510.0,510.0,510.0,1022.0,1022.0,1022.0,1022.0,1022.0,1022.0,1022.0,1022.0,1022.0,1022.0,1022.0,1022.0,1022.0,1022.0,1022.0,1022.0,1022.0,1022.0,1022.0,1022.0,533.0,533.0,533.0,533.0,533.0,533.0,533.0,533.0,533.0,533.0,533.0,533.0,533.0,533.0,533.0,533.0,534.0,534.0,534.0,534.0,509.3,1022.0,532.7666666666667,509.0,1022.0,533.0,510.0,1022.0,534.0,510.0,1022.0,534.0,1.0,0.0,2.0
0,510.0,510.0,510.0,509.0,509.0,509.0,509.0,509.0,509.0,509.0,509.0,509.0,509.0,509.0,509.0,509.0,509.0,509.0,509.0,509.0,1022.0,1022.0,1022.0,1021.0,1021.0,1021.0,1021.0,1021.0,1021.0,1021.0,1021.0,1021.0,1021.0,1021.0,1021.0,1021.0,1021.0,1021.0,1021.0,1021.0,534.0,534.0,534.0,538.0,538.0,538.0,538.0,538.0,538.0,538.0,538.0,538.0,538.0,538.0,538.0,538.0,538.0,538.0,538.0,538.0,509.4,1021.4666666666667,536.0666666666667,509.0,1021.0,534.0,509.0,1021.0,538.0,510.0,1022.0,538.0,1.0,1.0,5.0
0,509.0,509.0,509.0,509.0,509.0,509.0,509.0,509.0,509.0,509.0,509.0,509.0,509.0,509.0,509.0,509.0,509.0,509.0,509.0,509.0,1021.0,1021.0,1021.0,1021.0,1021.0,1021.0,1021.0,1021.0,1021.0,394.0,394.0,394.0,394.0,394.0,394.0,394.0,394.0,394.0,394.0,394.0,538.0,538.0,538.0,538.0,538.0,538.0,538.0,538.0,538.0,538.0,538.0,538.0,538.0,538.0,538.0,538.0,538.0,538.0,538.0,538.0,509.0,853.8,538.0,509.0,394.0,538.0,509.0,394.0,538.0,509.0,1021.0,538.0,0.0,627.0,0.0
0,509.0,509.0,509.0,509.0,509.0,509.0,509.0,509.0,509.0,509.0,509.0,509.0,509.0,509.0,509.0,509.0,509.0,509.0,509.0,509.0,394.0,394.0,394.0,394.0,394.0,394.0,394.0,394.0,394.0,394.0,394.0,394.0,394.0,394.0,0.0,0.0,0.0,0.0,0.0,0.0,538.0,538.0,538.0,538.0,538.0,538.0,538.0,538.0,538.0,538.0,538.0,538.0,538.0,538.0,534.0,534.0,534.0,534.0,534.0,534.0,509.0,362.3666666666667,537.4666666666667,509.0,0.0,534.0,509.0,0.0,534.0,509.0,394.0,538.0,0.0,1021.0,4.0
0,509.0,509.0,509.0,509.0,509.0,509.0,509.0,509.0,509.0,509.0,509.0,509.0,509.0,509.0,509.0,509.0,508.0,508.0,508.0,508.0,394.0,394.0,394.0,0.0,0.0,0.0,0.0,0.0,0.0,0.0,0.0,0.0,0.0,0.0,0.0,0.0,0.0,0.0,0.0,0.0,538.0,538.0,538.0,534.0,534.0,534.0,534.0,534.0,534.0,534.0,534.0,534.0,534.0,534.0,534.0,534.0,527.0,527.0,527.0,527.0,508.93333333333334,183.86666666666667,535.4,508.0,0.0,527.0,508.0,0.0,527.0,509.0,394.0,538.0,1.0,394.0,11.0
0,508.0,508.0,508.0,508.0,508.0,508.0,508.0,508.0,508.0,508.0,508.0,508.0,508.0,509.0,509.0,509.0,509.0,509.0,509.0,509.0,0.0,0.0,0.0,0.0,0.0,0.0,0.0,0.0,0.0,0.0,0.0,0.0,0.0,0.0,0.0,0.0,0.0,0.0,0.0,0.0,527.0,527.0,527.0,527.0,527.0,527.0,527.0,527.0,527.0,527.0,527.0,527.0,527.0,529.0,529.0,529.0,529.0,529.0,529.0,529.0,508.4,0.0,528.6333333333333,508.0,0.0,527.0,509.0,0.0,529.0,509.0,0.0,529.0,1.0,0.0,7.0
0,509.0,509.0,509.0,509.0,507.0,507.0,507.0,507.0,507.0,507.0,507.0,507.0,507.0,507.0,507.0,507.0,507.0,507.0,507.0,507.0,0.0,0.0,0.0,0.0,0.0,0.0,0.0,0.0,0.0,0.0,0.0,0.0,0.0,0.0,0.0,0.0,0.0,0.0,0.0,0.0,529.0,529.0,529.0,529.0,519.0,519.0,519.0,519.0,519.0,519.0,519.0,519.0,519.0,519.0,519.0,519.0,519.0,519.0,519.0,519.0,508.06666666666666,0.0,524.0,507.0,0.0,519.0,507.0,0.0,519.0,509.0,0.0,529.0,2.0,0.0,10.0
0,507.0,507.0,507.0,507.0,507.0,507.0,508.0,508.0,508.0,508.0,508.0,508.0,507.0,507.0,507.0,507.0,507.0,507.0,507.0,507.0,0.0,0.0,0.0,0.0,0.0,0.0,0.0,0.0,0.0,0.0,0.0,0.0,0.0,0.0,0.0,0.0,0.0,0.0,0.0,0.0,519.0,519.0,519.0,519.0,519.0,519.0,506.0,506.0,506.0,506.0,506.0,506.0,504.0,504.0,504.0,504.0,504.0,504.0,504.0,504.0,507.23333333333335,0.0,512.4666666666667,507.0,0.0,504.0,507.0,0.0,504.0,508.0,0.0,519.0,1.0,0.0,15.0
0,507.0,507.0,507.0,507.0,507.0,507.0,507.0,507.0,507.0,507.0,507.0,507.0,507.0,505.0,505.0,505.0,505.0,505.0,505.0,505.0,0.0,0.0,0.0,0.0,0.0,0.0,0.0,0.0,0.0,0.0,0.0,0.0,0.0,0.0,0.0,0.0,0.0,0.0,0.0,0.0,504.0,504.0,504.0,504.0,504.0,504.0,504.0,504.0,504.0,504.0,504.0,504.0,504.0,500.0,500.0,500.0,500.0,500.0,500.0,500.0,506.8666666666667,0.0,503.73333333333335,505.0,0.0,500.0,505.0,0.0,500.0,507.0,0.0,504.0,3.0,0.0,6.0
0,505.0,505.0,505.0,505.0,505.0,505.0,505.0,505.0,505.0,505.0,505.0,505.0,505.0,505.0,505.0,506.0,506.0,506.0,506.0,506.0,0.0,0.0,0.0,0.0,0.0,0.0,0.0,0.0,0.0,0.0,0.0,0.0,0.0,0.0,0.0,33.0,33.0,33.0,33.0,33.0,500.0,500.0,500.0,500.0,500.0,500.0,500.0,500.0,500.0,500.0,500.0,500.0,500.0,500.0,500.0,495.0,495.0,495.0,495.0,495.0,505.73333333333335,3.3,500.7,505.0,0.0,495.0,506.0,33.0,495.0,506.0,33.0,500.0,2.0,33.0,9.0
0,506.0,506.0,506.0,506.0,506.0,506.0,506.0,506.0,506.0,506.0,506.0,506.0,506.0,506.0,508.0,508.0,508.0,508.0,508.0,508.0,33.0,33.0,33.0,33.0,33.0,33.0,33.0,33.0,33.0,33.0,33.0,33.0,33.0,33.0,0.0,0.0,0.0,0.0,0.0,0.0,495.0,495.0,495.0,495.0,495.0,495.0,495.0,495.0,495.0,495.0,495.0,495.0,495.0,495.0,495.0,495.0,495.0,495.0,495.0,495.0,505.9,23.1,496.1666666666667,506.0,0.0,495.0,508.0,0.0,495.0,508.0,33.0,495.0,3.0,33.0,5.0
0,508.0,508.0,508.0,508.0,508.0,508.0,508.0,508.0,508.0,508.0,508.0,508.0,508.0,508.0,508.0,508.0,508.0,508.0,508.0,506.0,0.0,0.0,0.0,0.0,0.0,0.0,0.0,0.0,0.0,0.0,0.0,0.0,0.0,0.0,0.0,0.0,0.0,0.0,0.0,0.0,495.0,495.0,495.0,495.0,495.0,495.0,495.0,495.0,495.0,495.0,495.0,495.0,495.0,495.0,495.0,495.0,495.0,495.0,495.0,499.0,507.3333333333333,11.0,495.0,508.0,0.0,495.0,508.0,0.0,495.0,508.0,0.0,495.0,2.0,33.0,0.0
0,508.0,508.0,506.0,506.0,506.0,506.0,506.0,506.0,506.0,506.0,506.0,506.0,506.0,506.0,506.0,508.0,508.0,508.0,508.0,508.0,0.0,0.0,0.0,0.0,0.0,0.0,0.0,0.0,0.0,0.0,0.0,0.0,0.0,0.0,0.0,843.0,843.0,843.0,843.0,843.0,495.0,495.0,499.0,499.0,499.0,499.0,499.0,499.0,499.0,499.0,499.0,499.0,499.0,499.0,499.0,490.0,490.0,490.0,490.0,490.0,506.93333333333334,28.1,496.96666666666664,506.0,0.0,490.0,508.0,843.0,490.0,508.0,843.0,499.0,2.0,843.0,9.0
0,508.0,508.0,508.0,508.0,508.0,508.0,509.0,509.0,509.0,509.0,509.0,509.0,509.0,509.0,509.0,509.0,509.0,509.0,509.0,509.0,843.0,843.0,843.0,843.0,843.0,843.0,322.0,322.0,322.0,322.0,322.0,322.0,322.0,322.0,322.0,322.0,322.0,322.0,322.0,322.0,490.0,490.0,490.0,490.0,490.0,490.0,487.0,487.0,487.0,487.0,487.0,487.0,487.0,487.0,487.0,487.0,487.0,487.0,487.0,487.0,508.06666666666666,494.1,490.3,508.0,322.0,487.0,509.0,322.0,487.0,509.0,843.0,490.0,3.0,843.0,12.0
0,509.0,509.0,509.0,509.0,509.0,509.0,509.0,510.0,510.0,510.0,510.0,510.0,510.0,510.0,510.0,510.0,513.0,513.0,513.0,513.0,322.0,322.0,322.0,322.0,322.0,322.0,322.0,746.0,746.0,746.0,746.0,746.0,746.0,746.0,746.0,746.0,1022.0,1022.0,1022.0,1022.0,487.0,487.0,487.0,487.0,487.0,487.0,487.0,492.0,492.0,492.0,492.0,492.0,492.0,492.0,492.0,492.0,488.0,488.0,488.0,488.0,509.5,500.8,488.8666666666667,509.0,322.0,487.0,513.0,1022.0,488.0,513.0,1022.0,492.0,4.0,700.0,5.0
0,510.0,510.0,510.0,510.0,510.0,510.0,510.0,513.0,513.0,513.0,513.0,513.0,513.0,513.0,513.0,513.0,513.0,512.0,512.0,512.0,746.0,746.0,746.0,746.0,746.0,746.0,746.0,1022.0,1022.0,1022.0,1022.0,1022.0,1022.0,1022.0,1022.0,1022.0,1022.0,1022.0,1022.0,1022.0,492.0,492.0,492.0,492.0,492.0,492.0,492.0,488.0,488.0,488.0,488.0,488.0,488.0,488.0,488.0,488.0,488.0,501.0,501.0,501.0,510.93333333333334,757.4666666666667,489.6666666666667,510.0,746.0,488.0,512.0,1022.0,501.0,513.0,1022.0,501.0,4.0,700.0,14.0
0,513.0,513.0,513.0,513.0,513.0,513.0,513.0,512.0,512.0,512.0,512.0,512.0,512.0,512.0,510.0,510.0,510.0,510.0,510.0,510.0,1022.0,1022.0,1022.0,1022.0,1022.0,1022.0,1022.0,1022.0,1022.0,1022.0,1022.0,1022.0,1022.0,1022.0,1022.0,1022.0,1022.0,1022.0,1022.0,1022.0,488.0,488.0,488.0,488.0,488.0,488.0,488.0,501.0,501.0,501.0,501.0,501.0,501.0,501.0,496.0,496.0,496.0,496.0,496.0,496.0,511.6333333333333,948.4,493.3333333333333,510.0,1022.0,488.0,510.0,1022.0,496.0,513.0,1022.0,501.0,3.0,276.0,13.0
0,510.0,510.0,510.0,510.0,510.0,510.0,510.0,510.0,510.0,512.0,512.0,512.0,512.0,512.0,512.0,512.0,512.0,512.0,512.0,512.0,1022.0,1022.0,1022.0,1022.0,1022.0,1022.0,1022.0,1022.0,1022.0,825.0,825.0,825.0,825.0,825.0,825.0,825.0,825.0,825.0,825.0,825.0,496.0,496.0,496.0,496.0,496.0,496.0,496.0,496.0,496.0,504.0,504.0,504.0,504.0,504.0,504.0,504.0,504.0,504.0,504.0,504.0,510.93333333333334,956.3333333333334,499.3333333333333,510.0,825.0,496.0,512.0,825.0,504.0,512.0,1022.0,504.0,2.0,197.0,8.0
0,512.0,512.0,512.0,512.0,512.0,512.0,512.0,512.0,512.0,510.0,510.0,510.0,510.0,510.0,510.0,510.0,510.0,510.0,510.0,510.0,825.0,825.0,825.0,825.0,825.0,825.0,825.0,825.0,825.0,3.0,3.0,3.0,3.0,3.0,3.0,3.0,3.0,3.0,3.0,3.0,504.0,504.0,504.0,504.0,504.0,504.0,504.0,504.0,504.0,516.0,516.0,516.0,516.0,516.0,516.0,516.0,516.0,516.0,516.0,516.0,511.3333333333333,551.0,508.0,510.0,3.0,504.0,510.0,3.0,516.0,512.0,825.0,516.0,2.0,822.0,12.0
0,510.0,510.0,510.0,510.0,510.0,510.0,511.0,511.0,511.0,511.0,511.0,511.0,511.0,511.0,511.0,511.0,511.0,511.0,509.0,509.0,3.0,3.0,3.0,3.0,3.0,3.0,9.0,9.0,9.0,9.0,9.0,9.0,9.0,9.0,9.0,9.0,9.0,9.0,447.0,447.0,516.0,516.0,516.0,516.0,516.0,516.0,516.0,516.0,516.0,516.0,516.0,516.0,516.0,516.0,516.0,516.0,516.0,516.0,522.0,522.0,510.5,75.0,515.4,509.0,3.0,516.0,511.0,9.0,516.0,511.0,447.0,522.0,2.0,822.0,18.0
0,511.0,511.0,509.0,509.0,509.0,509.0,509.0,509.0,509.0,509.0,509.0,509.0,509.0,509.0,509.0,509.0,509.0,509.0,509.0,509.0,9.0,9.0,447.0,447.0,447.0,447.0,447.0,447.0,447.0,447.0,447.0,447.0,447.0,447.0,863.0,863.0,863.0,863.0,863.0,863.0,516.0,516.0,522.0,522.0,522.0,522.0,522.0,522.0,522.0,522.0,522.0,522.0,522.0,522.0,531.0,531.0,531.0,531.0,531.0,531.0,509.8333333333333,313.4,520.5,509.0,9.0,516.0,509.0,863.0,531.0,511.0,863.0,531.0,2.0,860.0,15.0
0,509.0,509.0,509.0,509.0,509.0,509.0,509.0,509.0,509.0,509.0,507.0,507.0,507.0,507.0,507.0,507.0,507.0,507.0,507.0,507.0,863.0,863.0,863.0,863.0,863.0,863.0,863.0,863.0,863.0,863.0,234.0,234.0,234.0,234.0,234.0,234.0,234.0,234.0,234.0,234.0,531.0,531.0,531.0,531.0,531.0,531.0,531.0,531.0,531.0,531.0,536.0,536.0,536.0,536.0,536.0,536.0,536.0,536.0,536.0,536.0,508.4,549.5,529.8,507.0,234.0,531.0,507.0,234.0,536.0,509.0,863.0,536.0,2.0,629.0,14.0
0,507.0,507.0,507.0,507.0,507.0,507.0,507.0,507.0,507.0,507.0,507.0,507.0,507.0,507.0,507.0,507.0,509.0,509.0,509.0,509.0,234.0,234.0,234.0,234.0,234.0,234.0,234.0,234.0,234.0,234.0,234.0,234.0,234.0,234.0,234.0,234.0,429.0,429.0,429.0,429.0,536.0,536.0,536.0,536.0,536.0,536.0,536.0,536.0,536.0,536.0,536.0,536.0,536.0,536.0,536.0,536.0,538.0,538.0,538.0,538.0,507.6,422.7,534.5,507.0,234.0,536.0,507.0,234.0,536.0,507.0,234.0,536.0,2.0,629.0,5.0
0,509.0,509.0,509.0,508.0,508.0,508.0,508.0,508.0,508.0,508.0,508.0,508.0,508.0,508.0,508.0,508.0,508.0,508.0,508.0,508.0,429.0,429.0,429.0,137.0,137.0,137.0,137.0,137.0,137.0,137.0,137.0,137.0,137.0,137.0,137.0,137.0,137.0,137.0,137.0,137.0,538.0,538.0,538.0,536.0,536.0,536.0,536.0,536.0,536.0,536.0,536.0,536.0,536.0,536.0,536.0,536.0,536.0,536.0,536.0,536.0,508.43333333333334,263.53333333333336,536.8666666666667,508.0,137.0,536.0,508.0,137.0,536.0,509.0,429.0,538.0,1.0,292.0,2.0
0,508.0,508.0,508.0,508.0,508.0,508.0,508.0,508.0,508.0,508.0,508.0,508.0,508.0,508.0,508.0,508.0,508.0,508.0,508.0,508.0,137.0,137.0,137.0,137.0,137.0,137.0,137.0,137.0,137.0,137.0,137.0,137.0,0.0,0.0,0.0,0.0,0.0,0.0,0.0,0.0,536.0,536.0,536.0,536.0,536.0,536.0,536.0,536.0,536.0,536.0,536.0,536.0,534.0,534.0,534.0,534.0,534.0,534.0,534.0,531.0,508.1333333333333,143.96666666666667,535.8,508.0,0.0,534.0,508.0,0.0,534.0,508.0,137.0,536.0,1.0,429.0,4.0
0,508.0,508.0,508.0,508.0,508.0,508.0,508.0,508.0,508.0,508.0,508.0,508.0,508.0,508.0,508.0,508.0,507.0,507.0,507.0,507.0,0.0,0.0,0.0,0.0,0.0,0.0,0.0,0.0,0.0,0.0,0.0,0.0,0.0,0.0,0.0,0.0,0.0,0.0,0.0,0.0,534.0,534.0,534.0,534.0,534.0,534.0,534.0,531.0,531.0,531.0,531.0,531.0,531.0,531.0,531.0,531.0,531.0,531.0,531.0,531.0,507.96666666666664,50.233333333333334,533.5333333333333,507.0,0.0,531.0,507.0,0.0,531.0,508.0,0.0,534.0,1.0,137.0,5.0
0,507.0,507.0,507.0,507.0,507.0,507.0,507.0,507.0,507.0,507.0,507.0,506.0,506.0,506.0,506.0,506.0,506.0,506.0,506.0,506.0,0.0,0.0,0.0,0.0,0.0,0.0,0.0,0.0,0.0,0.0,0.0,0.0,0.0,0.0,0.0,0.0,0.0,0.0,0.0,0.0,531.0,531.0,531.0,531.0,531.0,531.0,531.0,531.0,531.0,531.0,531.0,525.0,525.0,525.0,525.0,525.0,525.0,525.0,525.0,525.0,506.96666666666664,0.0,529.6,506.0,0.0,525.0,506.0,0.0,525.0,507.0,0.0,531.0,2.0,0.0,6.0
0,506.0,506.0,506.0,506.0,506.0,506.0,506.0,506.0,506.0,506.0,506.0,506.0,506.0,506.0,506.0,506.0,507.0,507.0,507.0,507.0,0.0,0.0,0.0,0.0,0.0,0.0,0.0,0.0,0.0,0.0,0.0,0.0,0.0,0.0,0.0,0.0,1.0,1.0,1.0,1.0,525.0,525.0,525.0,525.0,525.0,525.0,525.0,525.0,525.0,525.0,525.0,525.0,525.0,525.0,525.0,525.0,520.0,520.0,520.0,520.0,506.3,0.06666666666666667,526.0666666666667,506.0,0.0,520.0,507.0,1.0,520.0,507.0,1.0,525.0,1.0,1.0,11.0
0,506.0,506.0,507.0,507.0,507.0,507.0,507.0,507.0,507.0,507.0,507.0,507.0,507.0,507.0,506.0,506.0,506.0,506.0,506.0,506.0,0.0,1.0,1.0,1.0,1.0,1.0,1.0,1.0,1.0,1.0,1.0,1.0,1.0,1.0,8.0,8.0,8.0,8.0,8.0,8.0,525.0,520.0,520.0,520.0,520.0,520.0,520.0,520.0,520.0,520.0,520.0,520.0,520.0,520.0,513.0,513.0,513.0,513.0,513.0,513.0,506.43333333333334,1.7666666666666666,520.8333333333334,506.0,0.0,513.0,506.0,8.0,513.0,507.0,8.0,525.0,1.0,8.0,12.0
0,506.0,506.0,506.0,506.0,506.0,506.0,506.0,506.0,506.0,506.0,506.0,506.0,506.0,506.0,506.0,506.0,506.0,506.0,506.0,506.0,8.0,8.0,8.0,8.0,8.0,8.0,8.0,8.0,8.0,8.0,1.0,1.0,1.0,1.0,1.0,1.0,1.0,1.0,1.0,1.0,513.0,513.0,513.0,513.0,513.0,513.0,513.0,513.0,513.0,513.0,510.0,510.0,510.0,510.0,510.0,510.0,510.0,510.0,510.0,510.0,506.23333333333335,4.733333333333333,513.9333333333333,506.0,1.0,510.0,506.0,1.0,510.0,506.0,8.0,513.0,1.0,7.0,10.0
0,506.0,506.0,506.0,506.0,506.0,506.0,506.0,506.0,506.0,506.0,506.0,506.0,507.0,507.0,507.0,507.0,507.0,507.0,507.0,507.0,1.0,1.0,1.0,1.0,1.0,1.0,1.0,1.0,1.0,1.0,1.0,1.0,0.0,0.0,0.0,0.0,0.0,0.0,0.0,0.0,510.0,510.0,510.0,510.0,510.0,510.0,510.0,510.0,510.0,510.0,510.0,510.0,505.0,505.0,505.0,505.0,505.0,505.0,505.0,505.0,506.23333333333335,1.7,509.23333333333335,506.0,0.0,505.0,507.0,0.0,505.0,507.0,1.0,510.0,1.0,8.0,8.0
0,507.0,507.0,507.0,507.0,507.0,507.0,506.0,506.0,506.0,506.0,506.0,506.0,506.0,506.0,506.0,506.0,506.0,506.0,506.0,506.0,0.0,0.0,0.0,0.0,0.0,0.0,0.0,0.0,0.0,0.0,0.0,0.0,0.0,0.0,0.0,0.0,0.0,0.0,0.0,0.0,505.0,505.0,505.0,505.0,505.0,505.0,492.0,492.0,492.0,492.0,492.0,492.0,492.0,492.0,492.0,492.0,492.0,492.0,492.0,492.0,506.53333333333336,0.0,498.93333333333334,506.0,0.0,492.0,506.0,0.0,492.0,507.0,0.0,505.0,1.0,0.0,13.0
0,506.0,506.0,506.0,506.0,506.0,506.0,506.0,506.0,508.0,508.0,508.0,508.0,508.0,508.0,507.0,507.0,507.0,507.0,507.0,507.0,0.0,0.0,0.0,0.0,0.0,0.0,0.0,0.0,114.0,114.0,114.0,114.0,114.0,114.0,0.0,0.0,0.0,0.0,0.0,0.0,492.0,492.0,492.0,492.0,492.0,492.0,492.0,492.0,488.0,488.0,488.0,488.0,488.0,488.0,490.0,490.0,490.0,490.0,490.0,490.0,506.6333333333333,26.6,490.73333333333335,506.0,0.0,488.0,507.0,0.0,490.0,508.0,114.0,492.0,2.0,114.0,4.0
0,507.0,507.0,507.0,507.0,507.0,507.0,507.0,507.0,507.0,507.0,507.0,507.0,507.0,507.0,507.0,507.0,509.0,509.0,509.0,509.0,0.0,0.0,0.0,0.0,0.0,0.0,0.0,0.0,0.0,0.0,0.0,0.0,0.0,0.0,0.0,0.0,0.0,0.0,0.0,0.0,490.0,490.0,490.0,490.0,490.0,490.0,490.0,490.0,490.0,490.0,490.0,490.0,490.0,490.0,490.0,490.0,484.0,484.0,484.0,484.0,507.2,26.6,489.53333333333336,507.0,0.0,484.0,509.0,0.0,484.0,509.0,0.0,490.0,3.0,114.0,8.0
0,507.0,507.0,507.0,509.0,509.0,509.0,509.0,509.0,509.0,509.0,509.0,509.0,509.0,509.0,509.0,509.0,509.0,511.0,511.0,511.0,0.0,0.0,0.0,0.0,0.0,0.0,0.0,0.0,0.0,0.0,0.0,0.0,0.0,0.0,0.0,0.0,0.0,4.0,4.0,4.0,490.0,490.0,490.0,484.0,484.0,484.0,484.0,484.0,484.0,484.0,484.0,484.0,484.0,484.0,484.0,484.0,484.0,474.0,474.0,474.0,508.26666666666665,0.26666666666666666,485.93333333333334,507.0,0.0,474.0,511.0,4.0,474.0,511.0,4.0,490.0,4.0,4.0,16.0
0,511.0,511.0,511.0,511.0,511.0,511.0,511.0,511.0,511.0,509.0,509.0,509.0,509.0,509.0,509.0,509.0,509.0,509.0,509.0,509.0,4.0,4.0,4.0,4.0,4.0,4.0,4.0,4.0,4.0,10.0,10.0,10.0,10.0,10.0,10.0,10.0,10.0,10.0,10.0,10.0,474.0,474.0,474.0,474.0,474.0,474.0,474.0,474.0,474.0,482.0,482.0,482.0,482.0,482.0,482.0,482.0,482.0,482.0,482.0,482.0,510.06666666666666,5.466666666666667,478.0,509.0,4.0,474.0,509.0,10.0,482.0,511.0,10.0,482.0,2.0,10.0,10.0
0,509.0,509.0,511.0,511.0,511.0,511.0,511.0,511.0,511.0,511.0,511.0,511.0,511.0,511.0,511.0,511.0,511.0,511.0,511.0,511.0,10.0,10.0,81.0,81.0,81.0,171.0,171.0,171.0,171.0,171.0,171.0,171.0,171.0,171.0,171.0,171.0,171.0,171.0,171.0,171.0,482.0,482.0,489.0,489.0,489.0,503.0,503.0,503.0,503.0,503.0,503.0,503.0,503.0,503.0,503.0,503.0,503.0,503.0,503.0,503.0,510.2,97.6,493.2,509.0,10.0,482.0,511.0,171.0,503.0,511.0,171.0,503.0,2.0,161.0,21.0
0,511.0,511.0,511.0,511.0,511.0,511.0,511.0,511.0,511.0,511.0,511.0,511.0,511.0,511.0,511.0,511.0,511.0,511.0,511.0,511.0,171.0,171.0,171.0,171.0,171.0,171.0,171.0,171.0,171.0,253.0,253.0,253.0,253.0,253.0,253.0,253.0,253.0,302.0,302.0,302.0,503.0,503.0,503.0,503.0,503.0,503.0,503.0,503.0,503.0,509.0,509.0,509.0,509.0,509.0,509.0,509.0,509.0,520.0,520.0,520.0,511.0,202.96666666666667,505.8333333333333,511.0,171.0,503.0,511.0,302.0,520.0,511.0,302.0,520.0,0.0,221.0,31.0
0,511.0,511.0,511.0,511.0,511.0,511.0,511.0,511.0,511.0,511.0,511.0,511.0,511.0,511.0,512.0,512.0,512.0,512.0,512.0,512.0,253.0,253.0,253.0,253.0,253.0,302.0,302.0,302.0,302.0,302.0,302.0,302.0,302.0,302.0,349.0,349.0,349.0,349.0,349.0,349.0,509.0,509.0,509.0,509.0,509.0,520.0,520.0,520.0,520.0,520.0,520.0,520.0,520.0,520.0,528.0,528.0,528.0,528.0,528.0,528.0,511.1,258.7,513.3333333333334,511.0,253.0,509.0,512.0,349.0,528.0,512.0,349.0,528.0,1.0,178.0,25.0
0,512.0,512.0,512.0,512.0,512.0,512.0,512.0,512.0,512.0,512.0,512.0,510.0,510.0,510.0,510.0,510.0,510.0,510.0,510.0,510.0,349.0,349.0,349.0,349.0,349.0,349.0,349.0,349.0,349.0,349.0,349.0,391.0,391.0,391.0,391.0,391.0,391.0,391.0,391.0,391.0,528.0,528.0,528.0,528.0,528.0,528.0,528.0,528.0,528.0,528.0,528.0,536.0,536.0,536.0,536.0,536.0,536.0,536.0,536.0,536.0,511.5,348.1666666666667,528.0,510.0,349.0,528.0,510.0,391.0,536.0,512.0,391.0,536.0,2.0,89.0,16.0
0,510.0,510.0,510.0,510.0,510.0,510.0,511.0,511.0,511.0,511.0,511.0,511.0,511.0,511.0,511.0,511.0,511.0,511.0,511.0,511.0,391.0,391.0,391.0,391.0,391.0,391.0,420.0,420.0,420.0,420.0,420.0,420.0,420.0,420.0,420.0,420.0,420.0,420.0,420.0,420.0,536.0,536.0,536.0,536.0,536.0,536.0,538.0,538.0,538.0,538.0,538.0,538.0,538.0,538.0,538.0,538.0,538.0,538.0,538.0,538.0,510.43333333333334,403.56666666666666,536.8666666666667,510.0,391.0,536.0,511.0,420.0,538.0,511.0,420.0,538.0,1.0,29.0,2.0
0,511.0,511.0,511.0,511.0,511.0,511.0,511.0,511.0,511.0,511.0,511.0,511.0,511.0,509.0,509.0,509.0,509.0,509.0,509.0,509.0,420.0,420.0,420.0,420.0,420.0,420.0,420.0,420.0,420.0,420.0,420.0,420.0,420.0,431.0,431.0,431.0,431.0,431.0,431.0,431.0,538.0,538.0,538.0,538.0,538.0,538.0,538.0,538.0,538.0,538.0,538.0,538.0,538.0,540.0,540.0,540.0,540.0,540.0,540.0,540.0,510.56666666666666,418.93333333333334,538.1333333333333,509.0,420.0,538.0,509.0,431.0,540.0,511.0,431.0,540.0,2.0,40.0,4.0
0,511.0,511.0,511.0,509.0,509.0,509.0,509.0,509.0,509.0,509.0,509.0,509.0,509.0,509.0,509.0,509.0,509.0,509.0,509.0,509.0,420.0,420.0,420.0,431.0,431.0,431.0,431.0,431.0,431.0,431.0,431.0,431.0,431.0,431.0,431.0,443.0,443.0,443.0,443.0,443.0,538.0,538.0,538.0,540.0,540.0,540.0,540.0,540.0,540.0,540.0,540.0,540.0,540.0,540.0,540.0,536.0,536.0,536.0,536.0,536.0,509.8666666666667,427.8333333333333,538.6,509.0,420.0,536.0,509.0,443.0,536.0,511.0,443.0,540.0,2.0,23.0,4.0
0,509.0,509.0,509.0,509.0,509.0,509.0,509.0,509.0,509.0,509.0,509.0,509.0,509.0,509.0,508.0,508.0,508.0,508.0,508.0,508.0,431.0,443.0,443.0,443.0,443.0,443.0,443.0,443.0,443.0,443.0,443.0,443.0,443.0,443.0,443.0,443.0,443.0,443.0,443.0,443.0,540.0,536.0,536.0,536.0,536.0,536.0,536.0,536.0,536.0,536.0,536.0,536.0,536.0,536.0,532.0,532.0,532.0,532.0,532.0,532.0,508.8,438.6,536.6666666666666,508.0,431.0,532.0,508.0,443.0,532.0,509.0,443.0,540.0,1.0,12.0,8.0
0,509.0,509.0,509.0,508.0,508.0,508.0,508.0,508.0,508.0,508.0,508.0,508.0,508.0,508.0,508.0,508.0,508.0,508.0,508.0,508.0,443.0,443.0,443.0,443.0,443.0,443.0,443.0,443.0,443.0,443.0,443.0,443.0,443.0,443.0,443.0,447.0,447.0,447.0,447.0,447.0,536.0,536.0,536.0,532.0,532.0,532.0,532.0,532.0,532.0,532.0,532.0,532.0,532.0,532.0,532.0,531.0,531.0,531.0,531.0,531.0,508.46666666666664,443.53333333333336,533.6,508.0,443.0,531.0,508.0,447.0,531.0,509.0,447.0,536.0,1.0,16.0,9.0
0,508.0,508.0,508.0,508.0,508.0,508.0,508.0,508.0,508.0,508.0,508.0,508.0,510.0,510.0,510.0,510.0,510.0,510.0,510.0,510.0,447.0,447.0,447.0,447.0,447.0,447.0,447.0,447.0,447.0,447.0,447.0,447.0,454.0,454.0,454.0,454.0,454.0,454.0,454.0,454.0,531.0,531.0,531.0,531.0,531.0,531.0,531.0,531.0,531.0,531.0,531.0,531.0,528.0,528.0,528.0,528.0,528.0,528.0,528.0,528.0,508.4,447.2,530.7,508.0,447.0,528.0,510.0,454.0,528.0,510.0,454.0,531.0,2.0,11.0,4.0
0,510.0,510.0,510.0,510.0,510.0,510.0,510.0,510.0,510.0,510.0,510.0,510.0,509.0,509.0,509.0,509.0,509.0,509.0,509.0,509.0,454.0,454.0,454.0,454.0,454.0,454.0,454.0,454.0,454.0,454.0,454.0,454.0,463.0,463.0,463.0,463.0,463.0,463.0,463.0,463.0,528.0,528.0,528.0,528.0,528.0,528.0,528.0,528.0,528.0,528.0,528.0,528.0,519.0,519.0,519.0,519.0,519.0,519.0,519.0,519.0,509.43333333333334,453.26666666666665,527.8,509.0,454.0,519.0,509.0,463.0,519.0,510.0,463.0,528.0,2.0,16.0,12.0
0,509.0,509.0,509.0,509.0,509.0,509.0,509.0,509.0,509.0,509.0,509.0,509.0,509.0,509.0,508.0,508.0,508.0,508.0,508.0,508.0,463.0,463.0,463.0,463.0,463.0,463.0,463.0,463.0,463.0,463.0,463.0,463.0,463.0,463.0,472.0,472.0,472.0,472.0,472.0,472.0,519.0,519.0,519.0,519.0,519.0,519.0,519.0,519.0,519.0,519.0,519.0,519.0,519.0,519.0,516.0,516.0,516.0,516.0,516.0,516.0,509.1666666666667,461.5,521.3,508.0,463.0,516.0,508.0,472.0,516.0,509.0,472.0,519.0,2.0,18.0,12.0
0,508.0,508.0,508.0,508.0,508.0,508.0,508.0,508.0,508.0,508.0,507.0,507.0,507.0,507.0,507.0,507.0,507.0,507.0,507.0,507.0,472.0,472.0,472.0,472.0,472.0,472.0,472.0,472.0,472.0,472.0,484.0,484.0,484.0,484.0,484.0,484.0,484.0,484.0,484.0,484.0,516.0,516.0,516.0,516.0,516.0,516.0,516.0,516.0,516.0,516.0,507.0,507.0,507.0,507.0,507.0,507.0,507.0,507.0,507.0,507.0,507.73333333333335,475.3,513.4,507.0,472.0,507.0,507.0,484.0,507.0,508.0,484.0,516.0,2.0,21.0,12.0
0,507.0,507.0,507.0,507.0,507.0,507.0,507.0,507.0,507.0,507.0,507.0,508.0,508.0,508.0,508.0,508.0,508.0,508.0,508.0,508.0,484.0,484.0,484.0,484.0,484.0,484.0,484.0,484.0,484.0,484.0,484.0,492.0,492.0,492.0,492.0,492.0,492.0,492.0,492.0,492.0,507.0,507.0,507.0,507.0,507.0,507.0,507.0,507.0,507.0,507.0,507.0,501.0,501.0,501.0,501.0,501.0,501.0,501.0,501.0,501.0,507.3,486.4,505.2,507.0,484.0,501.0,508.0,492.0,501.0,508.0,492.0,507.0,1.0,8.0,6.0
0,507.0,507.0,507.0,507.0,508.0,508.0,508.0,508.0,508.0,508.0,508.0,508.0,508.0,508.0,508.0,506.0,506.0,506.0,506.0,506.0,484.0,484.0,484.0,484.0,492.0,492.0,492.0,492.0,492.0,492.0,492.0,492.0,492.0,492.0,492.0,494.0,498.0,498.0,498.0,498.0,507.0,507.0,507.0,507.0,501.0,501.0,501.0,501.0,501.0,501.0,501.0,501.0,501.0,501.0,501.0,493.0,493.0,493.0,493.0,493.0,507.3333333333333,488.73333333333335,503.23333333333335,506.0,484.0,493.0,506.0,498.0,493.0,508.0,498.0,507.0,2.0,14.0,14.0
0,506.0,506.0,506.0,506.0,506.0,506.0,506.0,506.0,506.0,506.0,506.0,506.0,506.0,506.0,506.0,506.0,506.0,506.0,506.0,506.0,498.0,498.0,498.0,498.0,498.0,498.0,498.0,498.0,498.0,501.0,501.0,501.0,501.0,501.0,501.0,501.0,501.0,501.0,501.0,501.0,493.0,493.0,493.0,493.0,493.0,493.0,493.0,493.0,493.0,491.0,491.0,491.0,491.0,491.0,491.0,491.0,491.0,491.0,491.0,491.0,506.26666666666665,497.96666666666664,493.7,506.0,498.0,491.0,506.0,501.0,491.0,506.0,501.0,493.0,2.0,9.0,10.0
0,506.0,506.0,506.0,506.0,506.0,506.0,506.0,506.0,506.0,506.0,506.0,506.0,506.0,506.0,506.0,506.0,508.0,508.0,508.0,508.0,501.0,501.0,501.0,501.0,501.0,501.0,501.0,501.0,501.0,501.0,501.0,501.0,501.0,501.0,501.0,501.0,497.0,497.0,497.0,497.0,491.0,491.0,491.0,491.0,491.0,491.0,491.0,491.0,491.0,491.0,491.0,491.0,491.0,491.0,491.0,491.0,489.0,489.0,489.0,489.0,506.1333333333333,500.03333333333336,491.3333333333333,506.0,497.0,489.0,508.0,497.0,489.0,508.0,501.0,491.0,2.0,4.0,4.0
0,506.0,506.0,506.0,508.0,508.0,508.0,508.0,508.0,508.0,508.0,508.0,508.0,508.0,508.0,509.0,509.0,509.0,509.0,509.0,509.0,501.0,501.0,501.0,497.0,497.0,497.0,497.0,497.0,497.0,497.0,497.0,497.0,497.0,497.0,485.0,485.0,485.0,485.0,485.0,485.0,491.0,491.0,491.0,489.0,489.0,489.0,489.0,489.0,489.0,489.0,489.0,489.0,489.0,489.0,489.0,489.0,489.0,489.0,489.0,489.0,507.2,497.26666666666665,489.93333333333334,506.0,485.0,489.0,509.0,485.0,489.0,509.0,501.0,491.0,3.0,16.0,2.0
0,509.0,509.0,509.0,509.0,509.0,509.0,509.0,509.0,509.0,509.0,509.0,509.0,509.0,509.0,509.0,510.0,510.0,510.0,510.0,510.0,485.0,485.0,485.0,485.0,485.0,485.0,485.0,485.0,485.0,485.0,485.0,485.0,485.0,485.0,485.0,487.0,487.0,487.0,487.0,487.0,489.0,489.0,489.0,489.0,489.0,489.0,489.0,489.0,489.0,489.0,489.0,489.0,489.0,489.0,489.0,491.0,491.0,491.0,491.0,491.0,508.93333333333334,488.1333333333333,489.3333333333333,509.0,485.0,489.0,510.0,487.0,491.0,510.0,487.0,491.0,2.0,12.0,2.0
0,509.0,509.0,509.0,509.0,509.0,510.0,510.0,510.0,510.0,510.0,510.0,510.0,510.0,510.0,510.0,510.0,510.0,510.0,510.0,510.0,485.0,485.0,485.0,485.0,485.0,487.0,487.0,487.0,487.0,487.0,487.0,487.0,487.0,487.0,487.0,487.0,487.0,488.0,488.0,488.0,489.0,489.0,489.0,489.0,489.0,491.0,491.0,491.0,491.0,491.0,491.0,491.0,491.0,491.0,491.0,491.0,491.0,497.0,497.0,497.0,509.46666666666664,485.96666666666664,490.1333333333333,509.0,485.0,489.0,510.0,488.0,497.0,510.0,488.0,497.0,1.0,3.0,8.0
0,510.0,510.0,510.0,510.0,510.0,510.0,510.0,510.0,510.0,510.0,510.0,510.0,510.0,510.0,510.0,510.0,510.0,510.0,510.0,510.0,488.0,488.0,488.0,488.0,488.0,488.0,492.0,492.0,492.0,492.0,492.0,492.0,492.0,492.0,492.0,492.0,492.0,492.0,492.0,492.0,497.0,497.0,497.0,497.0,497.0,497.0,494.0,494.0,494.0,494.0,494.0,494.0,494.0,494.0,494.0,494.0,494.0,494.0,494.0,494.0,510.0,489.5,494.3,510.0,488.0,494.0,510.0,492.0,494.0,510.0,492.0,497.0,0.0,5.0,6.0
0,510.0,510.0,510.0,510.0,510.0,510.0,510.0,510.0,510.0,510.0,510.0,510.0,513.0,513.0,513.0,513.0,513.0,513.0,513.0,513.0,492.0,492.0,492.0,492.0,492.0,492.0,492.0,492.0,492.0,492.0,492.0,492.0,509.0,509.0,509.0,509.0,509.0,509.0,509.0,509.0,494.0,494.0,494.0,494.0,494.0,494.0,494.0,494.0,494.0,494.0,494.0,494.0,496.0,496.0,496.0,496.0,496.0,496.0,496.0,496.0,510.7,495.96666666666664,494.46666666666664,510.0,492.0,494.0,513.0,509.0,496.0,513.0,509.0,496.0,3.0,17.0,2.0
0,513.0,513.0,513.0,513.0,513.0,513.0,513.0,513.0,513.0,513.0,513.0,513.0,513.0,512.0,512.0,512.0,512.0,512.0,512.0,512.0,509.0,509.0,509.0,509.0,509.0,509.0,509.0,509.0,509.0,509.0,509.0,509.0,509.0,520.0,520.0,520.0,520.0,520.0,520.0,520.0,496.0,496.0,496.0,496.0,496.0,496.0,496.0,496.0,496.0,496.0,496.0,496.0,496.0,509.0,509.0,509.0,509.0,509.0,509.0,509.0,512.1,507.23333333333335,498.1333333333333,512.0,509.0,496.0,512.0,520.0,509.0,513.0,520.0,509.0,3.0,28.0,15.0
0,512.0,512.0,512.0,512.0,512.0,512.0,512.0,512.0,512.0,512.0,512.0,512.0,512.0,512.0,513.0,513.0,513.0,513.0,513.0,513.0,520.0,520.0,520.0,520.0,520.0,520.0,520.0,520.0,520.0,520.0,520.0,520.0,520.0,520.0,530.0,530.0,530.0,530.0,530.0,530.0,509.0,509.0,509.0,509.0,509.0,509.0,509.0,509.0,509.0,509.0,509.0,509.0,509.0,509.0,520.0,520.0,520.0,520.0,520.0,520.0,512.3333333333334,519.8333333333334,508.6666666666667,512.0,520.0,509.0,513.0,530.0,520.0,513.0,530.0,520.0,1.0,21.0,24.0
0,513.0,513.0,513.0,513.0,513.0,513.0,513.0,513.0,513.0,513.0,513.0,513.0,513.0,513.0,513.0,511.0,511.0,511.0,511.0,511.0,530.0,530.0,530.0,530.0,530.0,530.0,530.0,530.0,530.0,530.0,530.0,530.0,530.0,530.0,530.0,526.0,526.0,526.0,526.0,526.0,520.0,520.0,520.0,520.0,520.0,520.0,520.0,520.0,520.0,520.0,520.0,520.0,520.0,520.0,520.0,518.0,518.0,518.0,518.0,518.0,512.4,526.1333333333333,516.0666666666667,511.0,526.0,518.0,511.0,526.0,518.0,513.0,530.0,520.0,2.0,10.0,11.0
0,511.0,511.0,511.0,511.0,511.0,511.0,511.0,511.0,511.0,511.0,511.0,511.0,511.0,511.0,511.0,511.0,511.0,508.0,508.0,508.0,526.0,526.0,526.0,526.0,526.0,526.0,526.0,526.0,526.0,526.0,526.0,526.0,526.0,526.0,526.0,526.0,526.0,532.0,532.0,532.0,518.0,518.0,518.0,518.0,518.0,518.0,518.0,518.0,518.0,518.0,518.0,518.0,518.0,518.0,518.0,518.0,518.0,531.0,531.0,531.0,511.2,527.2,519.2666666666667,508.0,526.0,518.0,508.0,532.0,531.0,511.0,532.0,531.0,5.0,6.0,13.0
0,511.0,511.0,511.0,511.0,511.0,511.0,508.0,508.0,508.0,508.0,508.0,508.0,508.0,508.0,507.0,507.0,507.0,507.0,507.0,507.0,526.0,526.0,526.0,526.0,526.0,526.0,532.0,532.0,532.0,532.0,532.0,532.0,532.0,532.0,530.0,530.0,530.0,530.0,530.0,530.0,518.0,518.0,518.0,518.0,518.0,518.0,531.0,531.0,531.0,531.0,531.0,531.0,531.0,531.0,544.0,544.0,544.0,544.0,544.0,544.0,509.56666666666666,528.3333333333334,525.3666666666667,507.0,526.0,518.0,507.0,530.0,544.0,511.0,532.0,544.0,4.0,6.0,26.0
0,508.0,508.0,507.0,507.0,507.0,507.0,507.0,507.0,507.0,507.0,507.0,507.0,507.0,507.0,507.0,507.0,507.0,507.0,507.0,507.0,532.0,532.0,530.0,530.0,530.0,530.0,530.0,530.0,530.0,530.0,530.0,530.0,530.0,530.0,530.0,530.0,530.0,530.0,530.0,518.0,531.0,531.0,544.0,544.0,544.0,544.0,544.0,544.0,544.0,544.0,544.0,544.0,544.0,544.0,544.0,544.0,544.0,544.0,544.0,529.0,507.7,530.2,537.5,507.0,530.0,531.0,507.0,530.0,544.0,508.0,532.0,544.0,4.0,6.0,26.0
0,507.0,507.0,507.0,507.0,507.0,507.0,507.0,507.0,507.0,507.0,507.0,507.0,507.0,509.0,509.0,509.0,509.0,509.0,509.0,509.0,530.0,530.0,530.0,530.0,518.0,518.0,518.0,518.0,518.0,518.0,518.0,518.0,518.0,518.0,518.0,518.0,518.0,518.0,518.0,518.0,544.0,544.0,544.0,544.0,529.0,529.0,529.0,529.0,529.0,529.0,529.0,529.0,529.0,541.0,541.0,541.0,541.0,541.0,541.0,541.0,507.3333333333333,523.6,538.4,507.0,518.0,529.0,509.0,518.0,541.0,509.0,530.0,544.0,2.0,12.0,15.0
0,509.0,509.0,509.0,509.0,509.0,509.0,509.0,509.0,509.0,509.0,509.0,509.0,509.0,509.0,509.0,509.0,509.0,509.0,509.0,509.0,518.0,518.0,518.0,496.0,496.0,496.0,496.0,496.0,496.0,496.0,496.0,496.0,496.0,496.0,496.0,496.0,496.0,496.0,496.0,496.0,541.0,541.0,541.0,537.0,537.0,537.0,537.0,537.0,537.0,537.0,537.0,537.0,537.0,537.0,537.0,537.0,537.0,537.0,537.0,537.0,509.0,506.26666666666665,538.8666666666667,509.0,496.0,537.0,509.0,496.0,537.0,509.0,518.0,541.0,0.0,22.0,4.0
0,509.0,509.0,509.0,509.0,509.0,509.0,508.0,508.0,508.0,508.0,508.0,508.0,508.0,508.0,508.0,507.0,507.0,507.0,507.0,507.0,496.0,496.0,496.0,496.0,496.0,496.0,486.0,486.0,486.0,486.0,486.0,486.0,486.0,486.0,486.0,495.0,495.0,495.0,495.0,495.0,537.0,537.0,537.0,537.0,537.0,537.0,524.0,524.0,524.0,524.0,524.0,524.0,524.0,524.0,524.0,530.0,530.0,530.0,530.0,530.0,508.43333333333334,492.8666666666667,532.1666666666666,507.0,486.0,524.0,507.0,495.0,530.0,509.0,496.0,537.0,2.0,10.0,13.0
0,507.0,507.0,507.0,507.0,507.0,507.0,507.0,507.0,507.0,507.0,506.0,506.0,506.0,506.0,506.0,506.0,506.0,506.0,506.0,506.0,495.0,495.0,495.0,495.0,495.0,495.0,495.0,495.0,495.0,495.0,491.0,491.0,491.0,491.0,491.0,491.0,491.0,491.0,491.0,491.0,530.0,530.0,530.0,530.0,530.0,530.0,530.0,530.0,530.0,530.0,520.0,520.0,520.0,520.0,520.0,520.0,520.0,520.0,520.0,520.0,506.93333333333334,491.26666666666665,525.0666666666667,506.0,491.0,520.0,506.0,491.0,520.0,507.0,495.0,530.0,2.0,9.0,10.0
0,506.0,506.0,506.0,506.0,506.0,506.0,506.0,506.0,505.0,505.0,505.0,505.0,505.0,505.0,505.0,505.0,505.0,505.0,505.0,505.0,491.0,491.0,491.0,491.0,491.0,491.0,491.0,491.0,480.0,480.0,480.0,480.0,480.0,480.0,480.0,480.0,480.0,480.0,480.0,480.0,520.0,520.0,520.0,520.0,520.0,520.0,520.0,520.0,509.0,509.0,509.0,509.0,509.0,509.0,509.0,509.0,509.0,509.0,509.0,509.0,505.76666666666665,487.73333333333335,517.3333333333334,505.0,480.0,509.0,505.0,480.0,509.0,506.0,491.0,520.0,2.0,15.0,21.0
0,505.0,505.0,505.0,505.0,505.0,505.0,505.0,505.0,505.0,505.0,505.0,505.0,505.0,507.0,507.0,507.0,507.0,507.0,507.0,507.0,480.0,480.0,480.0,480.0,480.0,480.0,480.0,480.0,480.0,480.0,480.0,480.0,480.0,486.0,486.0,486.0,486.0,486.0,486.0,486.0,509.0,509.0,509.0,509.0,509.0,509.0,509.0,509.0,509.0,509.0,509.0,509.0,509.0,507.0,507.0,507.0,507.0,507.0,507.0,507.0,505.4,481.73333333333335,509.4,505.0,480.0,507.0,507.0,486.0,507.0,507.0,486.0,509.0,2.0,11.0,13.0
0,507.0,507.0,507.0,507.0,507.0,507.0,507.0,507.0,507.0,507.0,507.0,507.0,506.0,506.0,506.0,506.0,506.0,506.0,506.0,506.0,486.0,486.0,486.0,486.0,486.0,486.0,486.0,486.0,486.0,486.0,486.0,486.0,480.0,480.0,480.0,480.0,480.0,480.0,480.0,480.0,507.0,507.0,507.0,507.0,507.0,507.0,507.0,507.0,507.0,507.0,507.0,507.0,504.0,504.0,504.0,504.0,504.0,504.0,504.0,504.0,506.26666666666665,483.2,506.93333333333334,506.0,480.0,504.0,506.0,480.0,504.0,507.0,486.0,507.0,2.0,6.0,5.0
0,506.0,506.0,506.0,506.0,506.0,506.0,506.0,508.0,508.0,508.0,508.0,508.0,508.0,508.0,508.0,508.0,508.0,507.0,507.0,507.0,480.0,480.0,480.0,480.0,480.0,480.0,480.0,500.0,500.0,500.0,500.0,500.0,500.0,500.0,500.0,500.0,500.0,501.0,501.0,501.0,504.0,504.0,504.0,504.0,504.0,504.0,495.0,495.0,495.0,495.0,495.0,495.0,495.0,495.0,495.0,495.0,485.0,485.0,485.0,485.0,506.96666666666664,489.5,500.1666666666667,506.0,480.0,485.0,507.0,501.0,485.0,508.0,501.0,504.0,2.0,21.0,22.0
0,508.0,508.0,508.0,508.0,508.0,507.0,507.0,507.0,507.0,507.0,507.0,507.0,507.0,507.0,507.0,507.0,507.0,509.0,509.0,509.0,500.0,500.0,500.0,500.0,500.0,501.0,501.0,501.0,501.0,501.0,501.0,501.0,501.0,501.0,501.0,501.0,501.0,497.0,497.0,497.0,495.0,495.0,495.0,495.0,495.0,485.0,485.0,485.0,485.0,485.0,485.0,485.0,485.0,485.0,485.0,485.0,485.0,494.0,494.0,494.0,507.3666666666667,498.3666666666667,491.2,507.0,497.0,485.0,509.0,497.0,494.0,509.0,501.0,495.0,3.0,21.0,19.0
0,507.0,509.0,509.0,509.0,509.0,509.0,509.0,509.0,509.0,509.0,509.0,509.0,509.0,509.0,509.0,509.0,509.0,509.0,509.0,509.0,501.0,497.0,497.0,497.0,497.0,497.0,497.0,497.0,497.0,491.0,491.0,491.0,491.0,491.0,491.0,491.0,491.0,491.0,491.0,491.0,485.0,494.0,494.0,494.0,494.0,494.0,494.0,494.0,494.0,486.0,486.0,486.0,486.0,486.0,486.0,486.0,486.0,486.0,486.0,486.0,508.26666666666665,496.6666666666667,488.3,507.0,491.0,485.0,509.0,491.0,486.0,509.0,501.0,494.0,2.0,10.0,9.0
0,509.0,509.0,509.0,509.0,509.0,509.0,509.0,509.0,509.0,509.0,509.0,510.0,510.0,510.0,510.0,510.0,510.0,510.0,510.0,510.0,491.0,491.0,491.0,491.0,491.0,491.0,491.0,491.0,491.0,491.0,491.0,486.0,486.0,486.0,486.0,486.0,486.0,486.0,486.0,486.0,486.0,486.0,486.0,486.0,486.0,486.0,486.0,486.0,486.0,486.0,486.0,483.0,483.0,483.0,483.0,483.0,483.0,483.0,483.0,483.0,509.23333333333335,489.8666666666667,485.46666666666664,509.0,486.0,483.0,510.0,486.0,483.0,510.0,491.0,486.0,1.0,11.0,11.0
0,510.0,510.0,510.0,510.0,510.0,510.0,510.0,510.0,510.0,510.0,510.0,510.0,510.0,512.0,512.0,512.0,512.0,512.0,512.0,512.0,486.0,486.0,486.0,486.0,486.0,486.0,486.0,486.0,486.0,486.0,486.0,486.0,486.0,490.0,490.0,490.0,490.0,490.0,490.0,490.0,483.0,483.0,483.0,483.0,483.0,483.0,483.0,483.0,483.0,483.0,483.0,483.0,483.0,487.0,487.0,487.0,487.0,487.0,487.0,487.0,510.06666666666666,488.0,484.46666666666664,510.0,486.0,483.0,512.0,490.0,487.0,512.0,490.0,487.0,3.0,5.0,4.0
0,512.0,512.0,512.0,512.0,512.0,512.0,512.0,512.0,512.0,511.0,511.0,511.0,511.0,511.0,511.0,511.0,511.0,511.0,511.0,511.0,490.0,490.0,490.0,490.0,490.0,490.0,490.0,490.0,490.0,497.0,497.0,497.0,497.0,497.0,497.0,497.0,497.0,497.0,497.0,497.0,487.0,487.0,487.0,487.0,487.0,487.0,487.0,487.0,487.0,489.0,489.0,489.0,489.0,489.0,489.0,489.0,489.0,489.0,489.0,489.0,511.1,490.9,486.4,511.0,490.0,487.0,511.0,497.0,489.0,512.0,497.0,489.0,2.0,11.0,6.0
0,511.0,511.0,511.0,511.0,511.0,511.0,511.0,511.0,511.0,511.0,511.0,511.0,511.0,511.0,511.0,511.0,511.0,511.0,511.0,511.0,497.0,497.0,497.0,497.0,497.0,497.0,497.0,497.0,497.0,497.0,497.0,497.0,497.0,497.0,509.0,509.0,509.0,509.0,509.0,509.0,489.0,489.0,489.0,489.0,489.0,489.0,489.0,489.0,489.0,489.0,489.0,489.0,489.0,489.0,495.0,495.0,495.0,495.0,495.0,495.0,511.1,497.5,489.4,511.0,497.0,489.0,511.0,509.0,495.0,511.0,509.0,495.0,1.0,19.0,8.0
0,511.0,511.0,511.0,511.0,511.0,512.0,512.0,512.0,512.0,512.0,512.0,512.0,512.0,512.0,512.0,512.0,512.0,512.0,512.0,512.0,509.0,509.0,509.0,509.0,509.0,526.0,526.0,526.0,526.0,526.0,526.0,526.0,526.0,526.0,526.0,526.0,526.0,526.0,526.0,526.0,495.0,495.0,495.0,495.0,495.0,506.0,506.0,506.0,506.0,506.0,506.0,506.0,506.0,506.0,506.0,506.0,506.0,506.0,506.0,506.0,511.43333333333334,516.3666666666667,500.1333333333333,511.0,509.0,495.0,512.0,526.0,506.0,512.0,526.0,506.0,1.0,17.0,11.0
0,510.0,510.0,510.0,510.0,510.0,510.0,510.0,510.0,510.0,510.0,509.0,509.0,509.0,509.0,509.0,509.0,509.0,509.0,509.0,509.0,531.0,531.0,531.0,531.0,531.0,531.0,531.0,531.0,531.0,531.0,534.0,534.0,534.0,534.0,534.0,534.0,534.0,534.0,534.0,534.0,516.0,516.0,516.0,516.0,516.0,516.0,516.0,516.0,516.0,516.0,519.0,519.0,519.0,519.0,519.0,519.0,519.0,519.0,519.0,519.0,510.03333333333336,531.0666666666667,515.2333333333333,509.0,531.0,516.0,509.0,534.0,519.0,510.0,534.0,519.0,3.0,8.0,13.0
0,509.0,509.0,509.0,509.0,508.0,508.0,508.0,508.0,508.0,508.0,508.0,508.0,508.0,510.0,510.0,510.0,510.0,510.0,510.0,510.0,534.0,534.0,534.0,534.0,538.0,538.0,538.0,538.0,538.0,538.0,538.0,538.0,538.0,543.0,543.0,543.0,543.0,543.0,543.0,543.0,519.0,519.0,519.0,519.0,534.0,534.0,534.0,534.0,534.0,534.0,534.0,534.0,534.0,546.0,546.0,546.0,546.0,546.0,546.0,546.0,508.96666666666664,536.8,528.7,508.0,534.0,519.0,510.0,543.0,546.0,510.0,543.0,546.0,2.0,12.0,30.0
0,510.0,510.0,510.0,510.0,510.0,510.0,509.0,509.0,509.0,509.0,509.0,509.0,509.0,509.0,509.0,509.0,509.0,509.0,509.0,509.0,543.0,543.0,543.0,543.0,543.0,543.0,527.0,527.0,527.0,527.0,527.0,527.0,527.0,527.0,527.0,527.0,527.0,527.0,527.0,527.0,546.0,546.0,546.0,546.0,546.0,546.0,542.0,542.0,542.0,542.0,542.0,542.0,542.0,542.0,542.0,542.0,542.0,542.0,542.0,542.0,509.53333333333336,536.4333333333333,544.0,509.0,527.0,542.0,509.0,527.0,542.0,510.0,543.0,546.0,2.0,16.0,12.0
0,509.0,509.0,509.0,509.0,509.0,509.0,509.0,509.0,509.0,509.0,509.0,509.0,509.0,509.0,509.0,509.0,509.0,509.0,509.0,509.0,527.0,527.0,527.0,527.0,527.0,527.0,527.0,527.0,527.0,527.0,527.0,527.0,527.0,516.0,516.0,516.0,516.0,516.0,516.0,516.0,542.0,542.0,542.0,542.0,542.0,542.0,542.0,542.0,542.0,542.0,542.0,542.0,542.0,546.0,546.0,546.0,546.0,546.0,546.0,546.0,509.0,524.8,542.8,509.0,516.0,542.0,509.0,516.0,546.0,509.0,527.0,546.0,0.0,11.0,4.0
0,509.0,509.0,509.0,509.0,509.0,509.0,509.0,509.0,509.0,509.0,509.0,509.0,509.0,509.0,509.0,509.0,509.0,509.0,509.0,509.0,516.0,516.0,516.0,516.0,516.0,516.0,516.0,516.0,516.0,516.0,516.0,516.0,506.0,506.0,506.0,506.0,506.0,506.0,506.0,506.0,546.0,546.0,546.0,546.0,546.0,546.0,546.0,546.0,546.0,546.0,546.0,546.0,543.0,543.0,543.0,543.0,543.0,543.0,543.0,543.0,509.0,517.3,544.2,509.0,506.0,543.0,509.0,506.0,543.0,509.0,516.0,546.0,0.0,21.0,4.0
0,509.0,509.0,509.0,509.0,509.0,509.0,509.0,509.0,509.0,507.0,507.0,507.0,507.0,507.0,507.0,507.0,507.0,507.0,507.0,507.0,506.0,506.0,506.0,506.0,506.0,506.0,506.0,506.0,506.0,496.0,496.0,496.0,496.0,496.0,496.0,496.0,496.0,496.0,496.0,496.0,543.0,543.0,543.0,543.0,543.0,543.0,543.0,543.0,543.0,531.0,531.0,531.0,531.0,531.0,531.0,531.0,531.0,531.0,531.0,531.0,508.26666666666665,503.0,538.8,507.0,496.0,531.0,507.0,496.0,531.0,509.0,506.0,543.0,2.0,20.0,15.0
0,507.0,507.0,507.0,507.0,507.0,507.0,507.0,507.0,507.0,507.0,507.0,507.0,507.0,507.0,507.0,507.0,507.0,507.0,508.0,508.0,494.0,494.0,494.0,494.0,494.0,494.0,494.0,494.0,494.0,494.0,494.0,494.0,494.0,494.0,494.0,494.0,494.0,494.0,496.0,496.0,523.0,523.0,523.0,523.0,523.0,523.0,523.0,523.0,523.0,523.0,523.0,523.0,523.0,523.0,523.0,523.0,523.0,523.0,521.0,521.0,507.0,494.6666666666667,525.6666666666666,507.0,494.0,523.0,507.0,494.0,523.0,507.0,494.0,523.0,0.0,2.0,8.0
0,507.0,508.0,508.0,508.0,508.0,508.0,508.0,508.0,508.0,508.0,506.0,506.0,506.0,506.0,506.0,506.0,506.0,506.0,506.0,506.0,494.0,496.0,496.0,496.0,496.0,496.0,496.0,496.0,496.0,496.0,506.0,506.0,506.0,506.0,506.0,506.0,506.0,506.0,506.0,506.0,523.0,521.0,521.0,521.0,521.0,521.0,521.0,521.0,521.0,521.0,509.0,509.0,509.0,509.0,509.0,509.0,509.0,509.0,509.0,509.0,507.03333333333336,498.26666666666665,518.1333333333333,506.0,494.0,509.0,506.0,506.0,509.0,508.0,506.0,523.0,2.0,12.0,14.0
0,506.0,506.0,506.0,506.0,506.0,506.0,506.0,506.0,506.0,506.0,506.0,506.0,506.0,506.0,506.0,506.0,506.0,506.0,506.0,506.0,506.0,506.0,506.0,506.0,506.0,506.0,506.0,506.0,506.0,506.0,506.0,506.0,506.0,506.0,506.0,502.0,502.0,502.0,502.0,502.0,509.0,509.0,509.0,509.0,509.0,509.0,509.0,509.0,509.0,509.0,509.0,509.0,509.0,509.0,509.0,495.0,495.0,495.0,495.0,495.0,506.46666666666664,503.26666666666665,510.4,506.0,502.0,495.0,506.0,502.0,495.0,506.0,506.0,509.0,2.0,10.0,26.0
0,506.0,506.0,506.0,506.0,506.0,506.0,506.0,506.0,506.0,506.0,506.0,506.0,506.0,506.0,506.0,506.0,506.0,506.0,506.0,506.0,502.0,502.0,502.0,502.0,502.0,502.0,502.0,502.0,502.0,502.0,502.0,502.0,502.0,502.0,502.0,502.0,510.0,510.0,510.0,510.0,495.0,495.0,495.0,495.0,495.0,495.0,495.0,495.0,495.0,495.0,495.0,495.0,495.0,495.0,495.0,495.0,495.0,495.0,495.0,495.0,506.0,504.1333333333333,498.73333333333335,506.0,502.0,495.0,506.0,510.0,495.0,506.0,510.0,495.0,0.0,8.0,14.0
0,506.0,506.0,506.0,506.0,506.0,506.0,506.0,506.0,506.0,506.0,506.0,506.0,507.0,507.0,507.0,507.0,507.0,507.0,507.0,507.0,510.0,510.0,510.0,510.0,510.0,510.0,510.0,510.0,510.0,510.0,510.0,510.0,505.0,505.0,505.0,505.0,505.0,505.0,505.0,505.0,495.0,495.0,495.0,495.0,495.0,495.0,495.0,495.0,495.0,495.0,495.0,495.0,491.0,491.0,491.0,491.0,491.0,491.0,491.0,491.0,506.23333333333335,506.43333333333334,494.06666666666666,506.0,505.0,491.0,507.0,505.0,491.0,507.0,510.0,495.0,1.0,8.0,4.0
0,507.0,507.0,507.0,507.0,507.0,507.0,507.0,507.0,507.0,507.0,507.0,507.0,507.0,507.0,507.0,507.0,507.0,506.0,506.0,506.0,505.0,505.0,505.0,505.0,505.0,505.0,505.0,505.0,505.0,505.0,505.0,505.0,505.0,505.0,505.0,505.0,505.0,510.0,510.0,510.0,491.0,491.0,491.0,491.0,491.0,491.0,491.0,491.0,491.0,491.0,491.0,491.0,491.0,491.0,491.0,491.0,491.0,483.0,483.0,483.0,506.73333333333335,506.3333333333333,491.26666666666665,506.0,505.0,483.0,506.0,510.0,483.0,507.0,510.0,491.0,1.0,5.0,12.0
0,506.0,506.0,506.0,506.0,506.0,506.0,506.0,506.0,506.0,506.0,506.0,506.0,506.0,507.0,507.0,507.0,507.0,507.0,507.0,507.0,510.0,510.0,510.0,510.0,510.0,510.0,510.0,510.0,510.0,510.0,510.0,510.0,510.0,508.0,508.0,508.0,508.0,508.0,508.0,508.0,483.0,483.0,483.0,483.0,483.0,483.0,483.0,483.0,483.0,483.0,483.0,483.0,483.0,492.0,492.0,492.0,492.0,492.0,492.0,492.0,506.3,509.0,485.56666666666666,506.0,508.0,483.0,507.0,508.0,492.0,507.0,510.0,492.0,1.0,5.0,9.0
0,507.0,507.0,507.0,507.0,507.0,507.0,507.0,507.0,507.0,507.0,507.0,507.0,507.0,507.0,507.0,507.0,507.0,507.0,507.0,507.0,508.0,508.0,508.0,508.0,508.0,508.0,508.0,508.0,508.0,508.0,508.0,508.0,508.0,508.0,508.0,508.0,508.0,508.0,508.0,508.0,492.0,492.0,492.0,492.0,492.0,492.0,492.0,492.0,492.0,492.0,492.0,492.0,492.0,492.0,492.0,492.0,492.0,492.0,492.0,492.0,506.6666666666667,508.6666666666667,489.0,507.0,508.0,492.0,507.0,508.0,492.0,507.0,508.0,492.0,1.0,2.0,9.0
0,507.0,507.0,507.0,507.0,507.0,509.0,509.0,509.0,509.0,509.0,509.0,509.0,509.0,509.0,509.0,510.0,510.0,510.0,510.0,510.0,508.0,508.0,508.0,508.0,508.0,499.0,499.0,499.0,499.0,499.0,499.0,499.0,499.0,499.0,499.0,489.0,489.0,489.0,489.0,489.0,492.0,492.0,492.0,492.0,492.0,490.0,490.0,490.0,490.0,490.0,490.0,490.0,490.0,490.0,490.0,482.0,482.0,482.0,482.0,482.0,507.9,503.76666666666665,490.53333333333336,507.0,489.0,482.0,510.0,489.0,482.0,510.0,508.0,492.0,3.0,19.0,10.0
0,509.0,509.0,509.0,509.0,509.0,509.0,509.0,510.0,510.0,510.0,510.0,510.0,510.0,510.0,510.0,510.0,510.0,510.0,510.0,510.0,499.0,499.0,499.0,499.0,499.0,499.0,499.0,489.0,489.0,489.0,489.0,489.0,489.0,489.0,489.0,489.0,489.0,489.0,489.0,489.0,490.0,490.0,490.0,490.0,490.0,490.0,490.0,482.0,482.0,482.0,482.0,482.0,482.0,482.0,482.0,494.0,494.0,494.0,494.0,494.0,509.0,496.8,488.0,509.0,489.0,482.0,510.0,489.0,494.0,510.0,499.0,494.0,3.0,19.0,12.0
