,unixtime,emg0,emg1
0,1555408658.268994,499.0,494.0
1,1555408658.3231175,510.0,510.0
2,1555408658.3793437,521.0,509.0
3,1555408658.4325738,518.0,504.0
4,1555408658.4847734,510.0,498.0
5,1555408658.536808,496.0,506.0
6,1555408658.5893986,496.0,506.0
7,1555408658.6441033,508.0,505.0
8,1555408658.698574,513.0,497.0
9,1555408658.7512925,519.0,500.0
10,1555408658.8044932,513.0,503.0
11,1555408658.8670545,504.0,509.0
12,1555408658.9191675,501.0,507.0
13,1555408658.975451,494.0,508.0
14,1555408659.0309477,501.0,514.0
15,1555408659.0827136,498.0,511.0
16,1555408659.134122,526.0,511.0
17,1555408659.1874108,571.0,510.0
18,1555408659.2403138,543.0,510.0
19,1555408659.292482,477.0,507.0
20,1555408659.344868,470.0,499.0
21,1555408659.397229,484.0,500.0
22,1555408659.449097,532.0,500.0
23,1555408659.501744,532.0,500.0
24,1555408659.5552342,569.0,502.0
25,1555408659.6066375,554.0,497.0
26,1555408659.6753447,506.0,504.0
27,1555408659.728479,469.0,506.0
28,1555408659.7818334,450.0,509.0
29,1555408659.8331623,479.0,516.0
30,1555408659.8861854,531.0,502.0
31,1555408659.9447875,545.0,510.0
32,1555408659.9964077,520.0,510.0
33,1555408660.0484052,483.0,507.0
34,1555408660.108311,468.0,507.0
35,1555408660.160726,482.0,507.0
36,1555408660.21214,518.0,507.0
37,1555408660.26641,534.0,510.0
38,1555408660.3183277,532.0,506.0
39,1555408660.371016,532.0,506.0
40,1555408660.422828,519.0,505.0
41,1555408660.4892263,487.0,503.0
42,1555408660.541477,496.0,502.0
43,1555408660.593784,518.0,502.0
44,1555408660.6452613,522.0,505.0
45,1555408660.6967952,517.0,505.0
46,1555408660.748198,495.0,512.0
47,1555408660.8016539,481.0,514.0
48,1555408660.8554914,498.0,508.0
49,1555408660.9089005,498.0,508.0
50,1555408660.9618282,517.0,509.0
51,1555408661.0142202,527.0,505.0
52,1555408661.0660157,508.0,507.0
53,1555408661.1173706,496.0,506.0
54,1555408661.1700053,488.0,506.0
55,1555408661.224705,498.0,506.0
56,1555408661.2802603,518.0,504.0
57,1555408661.3433557,531.0,505.0
58,1555408661.3980908,518.0,506.0
59,1555408661.4497955,500.0,513.0
60,1555408661.5124094,471.0,509.0
61,1555408661.564141,478.0,506.0
62,1555408661.6159377,506.0,507.0
63,1555408661.6685996,534.0,513.0
64,1555408661.7203429,525.0,510.0
65,1555408661.7793787,514.0,509.0
66,1555408661.831992,495.0,506.0
67,1555408661.8849304,483.0,511.0
68,1555408661.9487429,498.0,508.0
69,1555408662.000123,516.0,510.0
70,1555408662.0558803,536.0,509.0
71,1555408662.1110916,528.0,509.0
72,1555408662.1630118,511.0,502.0
73,1555408662.2167742,491.0,510.0
74,1555408662.2690494,485.0,508.0
75,1555408662.3204627,496.0,508.0
76,1555408662.3721888,516.0,506.0
77,1555408662.4239213,518.0,510.0
78,1555408662.4789422,505.0,512.0
79,1555408662.5320396,497.0,495.0
80,1555408662.5846727,497.0,495.0
81,1555408662.6370492,497.0,511.0
82,1555408662.689502,504.0,506.0
83,1555408662.7516003,516.0,501.0
84,1555408662.8039472,521.0,508.0
85,1555408662.8595657,512.0,495.0
86,1555408662.9124596,500.0,517.0
87,1555408662.966781,489.0,519.0
88,1555408663.0181088,497.0,507.0
89,1555408663.07108,514.0,510.0
90,1555408663.1256957,527.0,510.0
91,1555408663.1783545,522.0,512.0
92,1555408663.2314842,522.0,512.0
93,1555408663.2833304,516.0,509.0
94,1555408663.3360703,506.0,507.0
95,1555408663.3883283,499.0,519.0
96,1555408663.439985,509.0,509.0
97,1555408663.4959075,517.0,511.0
98,1555408663.5541742,516.0,513.0
99,1555408663.607685,518.0,515.0
100,1555408663.6595414,518.0,515.0
101,1555408663.714113,502.0,512.0
102,1555408663.7688665,505.0,504.0
103,1555408663.8227868,494.0,504.0
104,1555408663.8743947,508.0,512.0
105,1555408663.9309032,512.0,507.0
106,1555408663.9890995,520.0,513.0
107,1555408664.0492105,514.0,508.0
108,1555408664.1009974,497.0,507.0
109,1555408664.1552482,505.0,512.0
110,1555408664.2078018,507.0,495.0
111,1555408664.26157,511.0,481.0
112,1555408664.3133848,517.0,494.0
113,1555408664.3692594,505.0,508.0
114,1555408664.4209616,499.0,516.0
115,1555408664.4727166,505.0,503.0
116,1555408664.5259387,510.0,506.0
117,1555408664.577915,510.0,506.0
118,1555408664.6318038,518.0,511.0
119,1555408664.691421,516.0,509.0
120,1555408664.7432323,508.0,483.0
121,1555408664.7945673,510.0,513.0
122,1555408664.846948,511.0,511.0
123,1555408664.9140863,502.0,513.0
124,1555408664.9677062,493.0,507.0
125,1555408665.0213916,496.0,469.0
126,1555408665.0730567,498.0,513.0
127,1555408665.1291301,516.0,504.0
128,1555408665.183975,507.0,493.0
129,1555408665.2364228,503.0,495.0
130,1555408665.289891,503.0,495.0
131,1555408665.3423479,512.0,490.0
132,1555408665.394166,506.0,501.0
133,1555408665.4466338,519.0,499.0
134,1555408665.501613,510.0,487.0
135,1555408665.5549932,492.0,495.0
136,1555408665.6096766,499.0,500.0
137,1555408665.6705234,506.0,497.0
138,1555408665.7224662,516.0,495.0
139,1555408665.7760167,525.0,506.0
140,1555408665.8278637,510.0,491.0
141,1555408665.882961,498.0,501.0
142,1555408665.9404159,504.0,510.0
143,1555408665.9917245,514.0,496.0
144,1555408666.0431447,515.0,499.0
145,1555408666.0954056,516.0,497.0
146,1555408666.1505075,515.0,501.0
147,1555408666.2058616,507.0,495.0
148,1555408666.2594547,526.0,499.0
149,1555408666.311917,516.0,513.0
150,1555408666.3633258,512.0,512.0
151,1555408666.415507,513.0,514.0
152,1555408666.4674258,502.0,511.0
153,1555408666.5240726,490.0,516.0
154,1555408666.5785565,490.0,516.0
155,1555408666.6337638,499.0,512.0
156,1555408666.688059,516.0,513.0
157,1555408666.7407205,525.0,520.0
158,1555408666.7920632,508.0,521.0
159,1555408666.843426,497.0,523.0
160,1555408666.8950253,496.0,524.0
161,1555408666.9565935,525.0,514.0
162,1555408667.0111125,535.0,512.0
163,1555408667.0685909,533.0,502.0
164,1555408667.1223147,523.0,498.0
165,1555408667.175133,511.0,491.0
166,1555408667.239535,508.0,497.0
167,1555408667.2928338,522.0,507.0
168,1555408667.3463297,527.0,513.0
169,1555408667.398953,515.0,511.0
170,1555408667.450549,496.0,513.0
171,1555408667.5036707,491.0,507.0
172,1555408667.5555353,496.0,504.0
173,1555408667.6106784,496.0,504.0
174,1555408667.667223,511.0,508.0
175,1555408667.7257621,501.0,509.0
176,1555408667.7775567,526.0,512.0
177,1555408667.8329442,601.0,517.0
178,1555408667.8980434,576.0,517.0
179,1555408667.953143,438.0,514.0
180,1555408668.0105288,401.0,510.0
181,1555408668.0620728,435.0,508.0
182,1555408668.1146958,516.0,500.0
183,1555408668.1751654,632.0,501.0
184,1555408668.2269247,631.0,506.0
185,1555408668.284911,496.0,501.0
186,1555408668.3395402,440.0,507.0
187,1555408668.3909535,410.0,511.0
188,1555408668.442439,461.0,514.0
189,1555408668.4948478,551.0,514.0
190,1555408668.5549998,590.0,513.0
191,1555408668.6104443,560.0,508.0
192,1555408668.665565,471.0,510.0
193,1555408668.718753,419.0,509.0
194,1555408668.7726536,419.0,509.0
195,1555408668.8298366,469.0,510.0
196,1555408668.8820205,538.0,510.0
197,1555408668.9343505,525.0,510.0
198,1555408668.9873793,506.0,512.0
199,1555408669.039199,493.0,515.0
200,1555408669.0955963,463.0,508.0
201,1555408669.1472886,477.0,512.0
202,1555408669.1992848,508.0,511.0
203,1555408669.252115,527.0,511.0
204,1555408669.303693,534.0,512.0
205,1555408669.3606396,500.0,513.0
206,1555408669.4198368,465.0,513.0
207,1555408669.4733534,480.0,513.0
208,1555408669.52744,510.0,509.0
209,1555408669.581124,518.0,511.0
210,1555408669.634332,515.0,509.0
211,1555408669.6949687,513.0,510.0
212,1555408669.747807,504.0,509.0
213,1555408669.8135967,504.0,509.0
214,1555408669.865277,508.0,509.0
215,1555408669.9172587,519.0,508.0
216,1555408669.9727085,518.0,509.0
217,1555408670.0249546,515.0,506.0
218,1555408670.0767386,499.0,506.0
219,1555408670.1301336,508.0,512.0
220,1555408670.1837354,508.0,512.0
221,1555408670.2387335,524.0,516.0
222,1555408670.2929335,503.0,514.0
223,1555408670.3457541,478.0,513.0
224,1555408670.3975165,477.0,510.0
225,1555408670.4492564,496.0,511.0
226,1555408670.5031407,530.0,508.0
227,1555408670.5579808,544.0,510.0
228,1555408670.6093652,516.0,512.0
229,1555408670.6611485,484.0,509.0
230,1555408670.7132087,478.0,511.0
231,1555408670.7760472,503.0,513.0
232,1555408670.830636,536.0,516.0
233,1555408670.8831236,537.0,523.0
234,1555408670.9346206,508.0,513.0
235,1555408670.9879622,487.0,519.0
236,1555408671.0438027,487.0,519.0
237,1555408671.0986342,476.0,513.0
238,1555408671.1506145,470.0,516.0
239,1555408671.2028675,488.0,509.0
240,1555408671.2552986,514.0,509.0
241,1555408671.3072493,539.0,503.0
242,1555408671.3775046,544.0,505.0
243,1555408671.4302092,528.0,505.0
244,1555408671.485282,494.0,511.0
245,1555408671.5372143,459.0,514.0
246,1555408671.5891166,459.0,518.0
247,1555408671.6424632,477.0,518.0
248,1555408671.6973443,477.0,518.0
249,1555408671.7492497,496.0,529.0
250,1555408671.8049989,492.0,543.0
251,1555408671.8572786,486.0,532.0
252,1555408671.9090781,487.0,518.0
253,1555408671.9608855,513.0,502.0
254,1555408672.0130239,534.0,495.0
255,1555408672.0648065,551.0,487.0
256,1555408672.1179476,555.0,486.0
257,1555408672.171254,549.0,486.0
258,1555408672.226866,541.0,490.0
259,1555408672.280686,513.0,494.0
260,1555408672.3334277,506.0,506.0
261,1555408672.393249,512.0,509.0
262,1555408672.4523666,533.0,513.0
263,1555408672.5048885,533.0,513.0
264,1555408672.5595603,519.0,505.0
265,1555408672.6184902,502.0,510.0
266,1555408672.6744661,492.0,506.0
267,1555408672.7315927,496.0,508.0
268,1555408672.7843182,512.0,502.0
269,1555408672.8366215,521.0,504.0
270,1555408672.8930423,532.0,509.0
271,1555408672.94532,532.0,509.0
272,1555408673.0006633,524.0,509.0
273,1555408673.0801187,501.0,509.0
274,1555408673.1325858,497.0,509.0
275,1555408673.1905801,511.0,511.0
276,1555408673.242013,518.0,512.0
277,1555408673.293355,519.0,512.0
278,1555408673.3458686,492.0,510.0
279,1555408673.4050105,488.0,511.0
280,1555408673.4572937,487.0,509.0
281,1555408673.5124757,490.0,509.0
282,1555408673.5703208,520.0,513.0
283,1555408673.6221063,544.0,516.0
284,1555408673.6739895,527.0,512.0
285,1555408673.728138,507.0,508.0
286,1555408673.7812133,507.0,508.0
287,1555408673.833711,473.0,510.0
288,1555408673.8910959,479.0,508.0
289,1555408673.94689,507.0,508.0
290,1555408673.9998667,526.0,507.0
291,1555408674.0526705,539.0,508.0
292,1555408674.1044602,536.0,507.0
293,1555408674.16101,489.0,503.0
294,1555408674.216325,477.0,503.0
295,1555408674.2716131,492.0,507.0
296,1555408674.3229876,510.0,512.0
297,1555408674.3806458,527.0,510.0
298,1555408674.432234,524.0,509.0
299,1555408674.485968,499.0,509.0
300,1555408674.5446124,491.0,510.0
301,1555408674.600137,495.0,511.0
302,1555408674.652578,509.0,507.0
303,1555408674.70438,515.0,510.0
304,1555408674.7587926,509.0,509.0
305,1555408674.8200078,502.0,511.0
306,1555408674.8755488,494.0,508.0
307,1555408674.9280462,486.0,509.0
308,1555408674.9818063,486.0,509.0
309,1555408675.0357804,516.0,513.0
310,1555408675.0882761,577.0,508.0
311,1555408675.1411393,613.0,513.0
312,1555408675.1981008,507.0,513.0
313,1555408675.2507174,401.0,512.0
314,1555408675.302368,410.0,511.0
315,1555408675.3540351,492.0,510.0
316,1555408675.4054654,578.0,515.0
317,1555408675.4710166,594.0,512.0
318,1555408675.522777,491.0,518.0
319,1555408675.575645,434.0,514.0
320,1555408675.6282837,440.0,517.0
321,1555408675.6813924,474.0,513.0
322,1555408675.7330456,541.0,511.0
323,1555408675.7844753,581.0,511.0
324,1555408675.8368366,504.0,506.0
325,1555408675.8884308,416.0,504.0
326,1555408675.9417915,426.0,515.0
327,1555408676.0001454,496.0,508.0
328,1555408676.0561628,580.0,507.0
329,1555408676.1111763,611.0,508.0
330,1555408676.1625497,583.0,508.0
331,1555408676.2139,531.0,502.0
332,1555408676.26532,483.0,499.0
333,1555408676.3174179,435.0,509.0
334,1555408676.3724136,435.0,509.0
335,1555408676.426061,507.0,513.0
336,1555408676.4773684,550.0,515.0
337,1555408676.5290666,599.0,518.0
338,1555408676.582354,562.0,516.0
339,1555408676.6346283,529.0,504.0
340,1555408676.6870022,534.0,502.0
341,1555408676.7390292,475.0,501.0
342,1555408676.798322,469.0,500.0
343,1555408676.8506107,486.0,498.0
344,1555408676.912015,466.0,502.0
345,1555408676.9687643,486.0,515.0
346,1555408677.021439,492.0,511.0
347,1555408677.0760012,488.0,511.0
348,1555408677.1281347,490.0,508.0
349,1555408677.1795166,476.0,506.0
350,1555408677.2308853,510.0,507.0
351,1555408677.2848053,541.0,504.0
352,1555408677.336563,512.0,503.0
353,1555408677.3881676,512.0,503.0
354,1555408677.4437861,527.0,504.0
355,1555408677.4963732,550.0,510.0
356,1555408677.5483682,526.0,507.0
357,1555408677.6001182,504.0,506.0
358,1555408677.6522174,497.0,509.0
359,1555408677.7048414,486.0,509.0
360,1555408677.7652311,500.0,511.0
361,1555408677.8179245,486.0,513.0
362,1555408677.8713055,481.0,514.0
363,1555408677.9237988,483.0,508.0
364,1555408677.9751852,491.0,505.0
365,1555408678.0265787,507.0,507.0
366,1555408678.0804076,521.0,503.0
367,1555408678.1328027,521.0,503.0
368,1555408678.184996,495.0,502.0
369,1555408678.2383873,500.0,498.0
370,1555408678.2912724,506.0,505.0
371,1555408678.342596,504.0,504.0
372,1555408678.3939493,503.0,506.0
373,1555408678.4478984,498.0,506.0
374,1555408678.5083065,487.0,509.0
375,1555408678.5663161,494.0,507.0
376,1555408678.624146,501.0,505.0
377,1555408678.676262,530.0,506.0
378,1555408678.7279694,518.0,506.0
379,1555408678.7829158,512.0,507.0
380,1555408678.8365588,512.0,507.0
381,1555408678.8903432,506.0,510.0
382,1555408678.9424653,505.0,515.0
383,1555408678.9979997,513.0,515.0
384,1555408679.0599344,517.0,512.0
385,1555408679.1131072,525.0,511.0
386,1555408679.1687388,522.0,508.0
387,1555408679.2221067,521.0,507.0
388,1555408679.2737603,516.0,509.0
389,1555408679.327395,514.0,512.0
390,1555408679.3791642,515.0,512.0
391,1555408679.4306538,511.0,511.0
392,1555408679.482202,516.0,510.0
393,1555408679.534843,518.0,502.0
394,1555408679.5897217,518.0,502.0
395,1555408679.6414435,521.0,511.0
396,1555408679.6952624,568.0,533.0
397,1555408679.7473028,573.0,547.0
398,1555408679.806262,557.0,548.0
399,1555408679.85965,557.0,548.0
400,1555408679.9113941,557.0,548.0
401,1555408679.9643836,561.0,539.0
402,1555408680.0174565,530.0,522.0
403,1555408680.0691288,501.0,508.0
404,1555408680.1241517,501.0,508.0
405,1555408680.1766458,521.0,511.0
406,1555408680.2299016,568.0,533.0
407,1555408680.2825346,573.0,547.0
408,1555408680.3357751,557.0,548.0
409,1555408680.3889837,557.0,548.0
410,1555408680.4405677,561.0,539.0
411,1555408680.4922993,530.0,522.0
412,1555408680.550713,501.0,508.0
413,1555408680.604513,501.0,508.0
414,1555408680.6578617,521.0,511.0
415,1555408680.711028,521.0,511.0
416,1555408680.7624393,568.0,533.0
417,1555408680.8138437,573.0,547.0
418,1555408680.865715,557.0,548.0
419,1555408680.9179306,557.0,548.0
420,1555408680.9696877,561.0,539.0
421,1555408681.0212104,530.0,522.0
422,1555408681.0773988,501.0,508.0
423,1555408681.1379585,499.0,504.0
424,1555408681.189881,506.0,505.0
425,1555408681.2425935,496.0,499.0
426,1555408681.294588,489.0,496.0
427,1555408681.3460047,497.0,496.0
428,1555408681.4018648,504.0,499.0
429,1555408681.4544277,505.0,497.0
430,1555408681.5075252,504.0,511.0
431,1555408681.5606306,514.0,519.0
432,1555408681.6175032,518.0,520.0
433,1555408681.6709058,505.0,514.0
434,1555408681.7260585,506.0,510.0
435,1555408681.7798882,510.0,504.0
436,1555408681.8317084,508.0,495.0
437,1555408681.8881326,504.0,495.0
438,1555408681.9415507,497.0,496.0
439,1555408681.9977198,514.0,496.0
440,1555408682.0572202,514.0,500.0
441,1555408682.108557,494.0,491.0
442,1555408682.1598907,482.0,492.0
443,1555408682.211776,481.0,503.0
444,1555408682.2660873,506.0,504.0
445,1555408682.3184247,521.0,511.0
446,1555408682.3705702,521.0,511.0
447,1555408682.4229553,516.0,514.0
448,1555408682.479117,516.0,514.0
449,1555408682.5321093,506.0,507.0
450,1555408682.5855772,508.0,505.0
451,1555408682.6376622,501.0,507.0
452,1555408682.692623,488.0,517.0
453,1555408682.7478883,499.0,519.0
454,1555408682.8064306,526.0,517.0
455,1555408682.8618238,505.0,507.0
456,1555408682.917102,482.0,505.0
457,1555408682.9755728,475.0,499.0
458,1555408683.0269089,509.0,502.0
459,1555408683.0783894,511.0,503.0
460,1555408683.130512,519.0,504.0
461,1555408683.18247,512.0,487.0
462,1555408683.2387445,514.0,493.0
463,1555408683.3057818,531.0,496.0
464,1555408683.358869,544.0,508.0
465,1555408683.4107382,546.0,504.0
466,1555408683.4625647,526.0,511.0
467,1555408683.5163417,509.0,529.0
468,1555408683.5701194,485.0,515.0
469,1555408683.625306,524.0,547.0
470,1555408683.6868935,523.0,569.0
471,1555408683.7408524,516.0,450.0
472,1555408683.7946656,499.0,430.0
473,1555408683.846845,520.0,440.0
474,1555408683.9009492,524.0,451.0
475,1555408683.956588,526.0,453.0
476,1555408684.0190046,533.0,466.0
477,1555408684.0708232,534.0,494.0
478,1555408684.1246042,521.0,513.0
479,1555408684.1788435,521.0,541.0
480,1555408684.2347827,479.0,555.0
481,1555408684.2893372,517.0,540.0
482,1555408684.3418543,521.0,513.0
483,1555408684.3949423,517.0,494.0
484,1555408684.4467144,485.0,476.0
485,1555408684.499552,491.0,484.0
486,1555408684.556431,510.0,472.0
487,1555408684.6091123,510.0,472.0
488,1555408684.6626236,517.0,502.0
489,1555408684.7146692,545.0,482.0
490,1555408684.7664256,529.0,482.0
491,1555408684.8177798,526.0,522.0
492,1555408684.8710535,542.0,470.0
493,1555408684.9250836,465.0,473.0
494,1555408684.9774792,397.0,468.0
495,1555408685.0307617,433.0,497.0
496,1555408685.083484,471.0,491.0
497,1555408685.1369045,442.0,485.0
498,1555408685.1886208,413.0,495.0
499,1555408685.240359,430.0,533.0
500,1555408685.294377,491.0,521.0
501,1555408685.352318,491.0,521.0
