,emg_min_0,emg_min_1,emg_min_2,emg_0,emg_1,emg_2,emg_ampl_0,emg_ampl_1,emg_ampl_2,emg_med_0,emg_med_1,emg_med_2,emg_max_0,emg_max_1,emg_max_2,emg_prev_0_0,emg_prev_0_1,emg_prev_0_2,emg_prev_0_3,emg_prev_0_4,emg_prev_0_5,emg_prev_0_6,emg_prev_0_7,emg_prev_0_8,emg_prev_0_9,emg_prev_0_10,emg_prev_0_11,emg_prev_0_12,emg_prev_0_13,emg_prev_0_14,emg_prev_0_15,emg_prev_0_16,emg_prev_0_17,emg_prev_0_18,emg_prev_0_19,emg_prev_1_0,emg_prev_1_1,emg_prev_1_2,emg_prev_1_3,emg_prev_1_4,emg_prev_1_5,emg_prev_1_6,emg_prev_1_7,emg_prev_1_8,emg_prev_1_9,emg_prev_1_10,emg_prev_1_11,emg_prev_1_12,emg_prev_1_13,emg_prev_1_14,emg_prev_1_15,emg_prev_1_16,emg_prev_1_17,emg_prev_1_18,emg_prev_1_19,emg_prev_2_0,emg_prev_2_1,emg_prev_2_2,emg_prev_2_3,emg_prev_2_4,emg_prev_2_5,emg_prev_2_6,emg_prev_2_7,emg_prev_2_8,emg_prev_2_9,emg_prev_2_10,emg_prev_2_11,emg_prev_2_12,emg_prev_2_13,emg_prev_2_14,emg_prev_2_15,emg_prev_2_16,emg_prev_2_17,emg_prev_2_18,emg_prev_2_19
0,0.0,0.0,0.0,0,0,0,0.0,0.0,0.0,0.0,0.0,0.0,0.0,0.0,0.0,0.0,0.0,0.0,0.0,0.0,0.0,0.0,0.0,0.0,0.0,0.0,0.0,0.0,0.0,0.0,0.0,0.0,0.0,0.0,0.0,0.0,0.0,0.0,0.0,0.0,0.0,0.0,0.0,0.0,0.0,0.0,0.0,0.0,0.0,0.0,0.0,0.0,0.0,0.0,0.0,0.0,0.0,0.0,0.0,0.0,0.0,0.0,0.0,0.0,0.0,0.0,0.0,0.0,0.0,0.0,0.0,0.0,0.0,0.0,0.0
0,467.0,473.0,488.0,500,500,500,34.0,61.0,6.0,484.0,503.5,491.0,501.0,534.0,494.0,501.0,501.0,501.0,501.0,501.0,467.0,467.0,467.0,467.0,467.0,467.0,467.0,467.0,467.0,467.0,467.0,467.0,467.0,467.0,467.0,473.0,473.0,473.0,473.0,473.0,534.0,534.0,534.0,534.0,534.0,534.0,534.0,534.0,534.0,534.0,534.0,534.0,534.0,534.0,534.0,488.0,488.0,488.0,488.0,488.0,494.0,494.0,494.0,494.0,494.0,494.0,494.0,494.0,494.0,494.0,494.0,494.0,494.0,494.0,494.0
0,463.0,524.0,507.0,500,500,500,28.0,52.0,16.0,464.73333333333335,527.7333333333333,504.5,491.0,576.0,510.0,463.0,463.0,463.0,463.0,463.0,463.0,463.0,463.0,463.0,463.0,463.0,463.0,463.0,463.0,463.0,463.0,463.0,463.0,491.0,491.0,524.0,524.0,524.0,524.0,524.0,524.0,524.0,524.0,524.0,524.0,524.0,524.0,524.0,524.0,524.0,524.0,524.0,524.0,576.0,576.0,507.0,507.0,507.0,507.0,507.0,507.0,507.0,507.0,507.0,507.0,507.0,507.0,507.0,507.0,507.0,507.0,507.0,507.0,510.0,510.0
0,491.0,538.0,510.0,500,500,500,44.0,52.0,4.0,486.46666666666664,547.2666666666667,509.3,507.0,576.0,511.0,491.0,491.0,491.0,491.0,491.0,491.0,491.0,491.0,491.0,491.0,491.0,507.0,507.0,507.0,507.0,507.0,507.0,507.0,507.0,507.0,576.0,576.0,576.0,576.0,576.0,576.0,576.0,576.0,576.0,576.0,576.0,538.0,538.0,538.0,538.0,538.0,538.0,538.0,538.0,538.0,510.0,510.0,510.0,510.0,510.0,510.0,510.0,510.0,510.0,510.0,510.0,511.0,511.0,511.0,511.0,511.0,511.0,511.0,511.0,511.0
0,491.0,508.0,481.0,500,500,500,16.0,68.0,30.0,502.73333333333335,539.0666666666667,506.8666666666667,507.0,538.0,511.0,507.0,507.0,507.0,507.0,507.0,507.0,507.0,507.0,507.0,507.0,507.0,507.0,507.0,507.0,507.0,491.0,491.0,491.0,491.0,491.0,538.0,538.0,538.0,538.0,538.0,538.0,538.0,538.0,538.0,538.0,538.0,538.0,538.0,538.0,538.0,508.0,508.0,508.0,508.0,508.0,511.0,511.0,511.0,511.0,511.0,511.0,511.0,511.0,511.0,511.0,511.0,511.0,511.0,511.0,511.0,481.0,481.0,481.0,481.0,481.0
0,491.0,508.0,481.0,500,500,500,16.0,30.0,30.0,496.26666666666665,517.3333333333334,492.0,494.0,512.0,490.0,491.0,491.0,491.0,491.0,491.0,491.0,491.0,491.0,491.0,491.0,494.0,494.0,494.0,494.0,494.0,494.0,494.0,494.0,494.0,494.0,508.0,508.0,508.0,508.0,508.0,508.0,508.0,508.0,508.0,508.0,512.0,512.0,512.0,512.0,512.0,512.0,512.0,512.0,512.0,512.0,481.0,481.0,481.0,481.0,481.0,481.0,481.0,481.0,481.0,481.0,490.0,490.0,490.0,490.0,490.0,490.0,490.0,490.0,490.0,490.0
0,474.0,484.0,490.0,500,500,500,20.0,28.0,61.0,488.56666666666666,501.73333333333335,510.3666666666667,494.0,512.0,542.0,494.0,494.0,494.0,494.0,489.0,489.0,489.0,489.0,489.0,489.0,489.0,474.0,474.0,474.0,474.0,474.0,474.0,474.0,474.0,474.0,512.0,512.0,512.0,512.0,495.0,495.0,495.0,495.0,495.0,495.0,495.0,484.0,484.0,484.0,484.0,484.0,484.0,484.0,484.0,484.0,490.0,490.0,490.0,490.0,542.0,542.0,542.0,542.0,542.0,542.0,542.0,524.0,524.0,524.0,524.0,524.0,524.0,524.0,524.0,524.0
0,474.0,475.0,497.0,500,500,500,33.0,9.0,27.0,486.1,480.7,514.1,507.0,484.0,524.0,474.0,474.0,474.0,474.0,474.0,474.0,474.0,474.0,474.0,507.0,507.0,507.0,507.0,507.0,507.0,507.0,507.0,507.0,507.0,507.0,484.0,484.0,484.0,484.0,484.0,484.0,484.0,484.0,484.0,475.0,475.0,475.0,475.0,475.0,475.0,475.0,475.0,475.0,475.0,475.0,524.0,524.0,524.0,524.0,524.0,524.0,524.0,524.0,524.0,497.0,497.0,497.0,497.0,497.0,497.0,497.0,497.0,497.0,497.0,497.0
0,507.0,475.0,495.0,500,500,500,40.0,22.0,29.0,498.43333333333334,478.1333333333333,504.1333333333333,514.0,497.0,497.0,507.0,507.0,507.0,507.0,507.0,507.0,507.0,507.0,507.0,507.0,507.0,507.0,507.0,507.0,507.0,507.0,507.0,507.0,514.0,514.0,475.0,475.0,475.0,475.0,475.0,475.0,475.0,475.0,475.0,475.0,475.0,475.0,475.0,475.0,475.0,475.0,475.0,475.0,497.0,497.0,497.0,497.0,497.0,497.0,497.0,497.0,497.0,497.0,497.0,497.0,497.0,497.0,497.0,497.0,497.0,497.0,497.0,497.0,495.0,495.0
0,506.0,475.0,495.0,500,500,500,8.0,22.0,27.0,509.96666666666664,484.53333333333336,498.6333333333333,514.0,497.0,522.0,507.0,507.0,507.0,514.0,514.0,514.0,514.0,514.0,514.0,514.0,514.0,514.0,514.0,514.0,514.0,514.0,506.0,506.0,506.0,506.0,475.0,475.0,475.0,497.0,497.0,497.0,497.0,497.0,497.0,497.0,497.0,497.0,497.0,497.0,497.0,497.0,475.0,475.0,475.0,475.0,497.0,497.0,497.0,495.0,495.0,495.0,495.0,495.0,495.0,495.0,495.0,495.0,495.0,495.0,495.0,495.0,522.0,522.0,522.0,522.0
0,506.0,475.0,482.0,500,500,500,17.0,44.0,40.0,510.6,487.46666666666664,507.6333333333333,523.0,519.0,522.0,514.0,514.0,514.0,506.0,506.0,506.0,506.0,506.0,506.0,506.0,506.0,506.0,506.0,506.0,506.0,506.0,523.0,523.0,523.0,523.0,497.0,497.0,497.0,475.0,475.0,475.0,475.0,475.0,475.0,475.0,475.0,475.0,475.0,475.0,475.0,475.0,519.0,519.0,519.0,519.0,495.0,495.0,495.0,522.0,522.0,522.0,522.0,522.0,522.0,522.0,522.0,522.0,522.0,522.0,522.0,522.0,482.0,482.0,482.0,482.0
0,508.0,519.0,482.0,500,500,500,17.0,54.0,40.0,517.9666666666667,507.6,493.96666666666664,523.0,529.0,521.0,523.0,523.0,523.0,523.0,523.0,523.0,523.0,523.0,523.0,523.0,523.0,523.0,523.0,523.0,523.0,523.0,523.0,508.0,508.0,508.0,519.0,519.0,519.0,519.0,519.0,519.0,519.0,519.0,519.0,519.0,519.0,519.0,519.0,519.0,519.0,519.0,519.0,529.0,529.0,529.0,482.0,482.0,482.0,482.0,482.0,482.0,482.0,482.0,482.0,482.0,482.0,482.0,482.0,482.0,482.0,482.0,482.0,521.0,521.0,521.0
0,508.0,513.0,482.0,500,500,500,21.0,16.0,39.0,517.6,522.2,499.73333333333335,529.0,529.0,521.0,523.0,523.0,523.0,508.0,508.0,508.0,508.0,508.0,508.0,508.0,508.0,508.0,508.0,529.0,529.0,529.0,529.0,529.0,529.0,529.0,519.0,519.0,519.0,529.0,529.0,529.0,529.0,529.0,529.0,529.0,529.0,529.0,529.0,513.0,513.0,513.0,513.0,513.0,513.0,513.0,482.0,482.0,482.0,521.0,521.0,521.0,521.0,521.0,521.0,521.0,521.0,521.0,521.0,498.0,498.0,498.0,498.0,498.0,498.0,498.0
0,520.0,513.0,498.0,500,500,500,21.0,16.0,23.0,522.3,517.3333333333334,505.56666666666666,529.0,516.0,509.0,529.0,529.0,529.0,529.0,529.0,529.0,529.0,529.0,529.0,529.0,529.0,529.0,529.0,529.0,520.0,520.0,520.0,520.0,520.0,520.0,513.0,513.0,513.0,513.0,513.0,513.0,513.0,513.0,513.0,513.0,513.0,513.0,513.0,513.0,516.0,516.0,516.0,516.0,516.0,516.0,498.0,498.0,498.0,498.0,498.0,498.0,498.0,498.0,498.0,498.0,498.0,498.0,498.0,498.0,509.0,509.0,509.0,509.0,509.0,509.0
0,520.0,492.0,498.0,500,500,500,10.0,24.0,11.0,525.1333333333333,513.6,503.0,530.0,516.0,509.0,529.0,529.0,529.0,529.0,529.0,529.0,520.0,520.0,520.0,520.0,520.0,520.0,520.0,520.0,520.0,520.0,520.0,520.0,530.0,530.0,513.0,513.0,513.0,513.0,513.0,513.0,516.0,516.0,516.0,516.0,516.0,516.0,516.0,516.0,516.0,516.0,516.0,492.0,492.0,492.0,498.0,498.0,498.0,498.0,498.0,498.0,509.0,509.0,509.0,509.0,509.0,509.0,509.0,509.0,509.0,509.0,509.0,505.0,505.0,505.0
0,520.0,492.0,505.0,500,500,500,29.0,24.0,19.0,526.7333333333333,506.8,506.76666666666665,549.0,516.0,517.0,520.0,520.0,520.0,520.0,520.0,520.0,520.0,520.0,530.0,530.0,530.0,530.0,530.0,530.0,530.0,530.0,530.0,549.0,549.0,549.0,516.0,516.0,516.0,516.0,516.0,516.0,516.0,516.0,492.0,492.0,492.0,492.0,492.0,492.0,492.0,492.0,492.0,501.0,501.0,501.0,509.0,509.0,509.0,509.0,509.0,509.0,509.0,509.0,505.0,505.0,505.0,505.0,505.0,505.0,505.0,505.0,505.0,517.0,517.0,517.0
0,479.0,474.0,497.0,500,500,500,70.0,27.0,20.0,521.2333333333333,489.9,507.26666666666665,549.0,501.0,517.0,549.0,549.0,549.0,549.0,549.0,549.0,549.0,549.0,479.0,479.0,479.0,479.0,479.0,479.0,479.0,479.0,479.0,479.0,479.0,479.0,501.0,501.0,501.0,501.0,501.0,501.0,501.0,501.0,474.0,474.0,474.0,474.0,474.0,474.0,474.0,474.0,474.0,474.0,474.0,474.0,517.0,517.0,517.0,517.0,517.0,517.0,517.0,497.0,497.0,497.0,497.0,497.0,497.0,497.0,497.0,497.0,497.0,497.0,497.0,497.0
0,479.0,474.0,497.0,500,500,500,14.0,14.0,11.0,486.93333333333334,479.6,501.23333333333335,493.0,488.0,508.0,479.0,479.0,479.0,493.0,493.0,493.0,493.0,493.0,493.0,493.0,493.0,493.0,493.0,493.0,493.0,493.0,493.0,493.0,493.0,493.0,474.0,474.0,474.0,488.0,488.0,488.0,488.0,488.0,488.0,488.0,488.0,488.0,488.0,478.0,478.0,478.0,478.0,478.0,478.0,478.0,497.0,497.0,497.0,502.0,502.0,502.0,502.0,502.0,502.0,502.0,502.0,502.0,502.0,508.0,508.0,508.0,508.0,508.0,508.0,508.0
0,493.0,475.0,508.0,500,500,500,13.0,13.0,42.0,494.3,480.3666666666667,510.0,506.0,478.0,544.0,493.0,493.0,493.0,493.0,493.0,493.0,493.0,493.0,493.0,493.0,493.0,493.0,493.0,493.0,493.0,493.0,493.0,506.0,506.0,506.0,478.0,478.0,478.0,478.0,478.0,478.0,478.0,478.0,478.0,478.0,478.0,478.0,478.0,478.0,478.0,478.0,478.0,475.0,475.0,475.0,508.0,508.0,508.0,508.0,508.0,508.0,508.0,508.0,508.0,508.0,508.0,508.0,508.0,508.0,508.0,508.0,508.0,544.0,544.0,544.0
0,493.0,475.0,508.0,500,500,500,13.0,3.0,36.0,500.5,476.3333333333333,528.5,506.0,479.0,544.0,493.0,506.0,506.0,506.0,506.0,506.0,506.0,506.0,506.0,506.0,506.0,506.0,506.0,506.0,506.0,506.0,497.0,497.0,497.0,497.0,475.0,475.0,475.0,475.0,475.0,475.0,475.0,475.0,475.0,475.0,475.0,475.0,475.0,475.0,475.0,475.0,479.0,479.0,479.0,479.0,544.0,544.0,544.0,544.0,544.0,544.0,544.0,544.0,544.0,544.0,544.0,544.0,544.0,544.0,544.0,544.0,511.0,511.0,511.0,511.0
0,497.0,479.0,502.0,500,500,500,9.0,47.0,42.0,500.6,480.53333333333336,521.4,506.0,522.0,511.0,497.0,497.0,497.0,497.0,497.0,497.0,497.0,497.0,497.0,497.0,497.0,497.0,497.0,497.0,497.0,497.0,506.0,506.0,506.0,506.0,479.0,479.0,479.0,479.0,479.0,479.0,479.0,479.0,479.0,479.0,479.0,479.0,479.0,479.0,479.0,479.0,522.0,522.0,522.0,522.0,511.0,511.0,511.0,511.0,511.0,511.0,511.0,511.0,511.0,511.0,511.0,511.0,511.0,511.0,511.0,511.0,502.0,502.0,502.0,502.0
0,490.0,522.0,502.0,500,500,500,16.0,66.0,9.0,500.4,515.1333333333333,504.4,506.0,545.0,502.0,506.0,506.0,506.0,506.0,506.0,506.0,506.0,506.0,506.0,506.0,506.0,506.0,506.0,490.0,490.0,490.0,490.0,490.0,490.0,490.0,522.0,522.0,522.0,522.0,522.0,522.0,522.0,522.0,522.0,522.0,522.0,522.0,545.0,545.0,545.0,545.0,545.0,545.0,545.0,545.0,502.0,502.0,502.0,502.0,502.0,502.0,502.0,502.0,502.0,502.0,502.0,502.0,502.0,502.0,502.0,502.0,502.0,502.0,502.0,502.0
0,479.0,545.0,502.0,500,500,500,27.0,31.0,35.0,486.8666666666667,546.9,513.6666666666666,490.0,553.0,537.0,490.0,490.0,490.0,490.0,490.0,490.0,490.0,490.0,490.0,479.0,479.0,479.0,479.0,479.0,479.0,479.0,479.0,479.0,479.0,479.0,545.0,545.0,545.0,545.0,545.0,545.0,545.0,545.0,553.0,553.0,553.0,553.0,553.0,553.0,553.0,553.0,553.0,553.0,553.0,553.0,502.0,502.0,502.0,502.0,502.0,502.0,502.0,502.0,537.0,537.0,537.0,537.0,537.0,537.0,537.0,537.0,537.0,537.0,537.0,537.0
0,479.0,535.0,533.0,500,500,500,18.0,18.0,35.0,482.73333333333335,549.4666666666667,534.0,497.0,553.0,537.0,479.0,479.0,479.0,479.0,479.0,479.0,479.0,479.0,479.0,479.0,479.0,479.0,479.0,479.0,479.0,497.0,497.0,497.0,497.0,497.0,553.0,553.0,553.0,553.0,553.0,553.0,553.0,553.0,553.0,553.0,553.0,553.0,553.0,553.0,535.0,535.0,535.0,535.0,535.0,535.0,537.0,537.0,537.0,537.0,537.0,537.0,537.0,537.0,537.0,537.0,537.0,537.0,537.0,537.0,533.0,533.0,533.0,533.0,533.0,533.0
0,497.0,527.0,509.0,500,500,500,22.0,26.0,28.0,492.06666666666666,538.8666666666667,527.9333333333333,501.0,535.0,533.0,497.0,497.0,497.0,497.0,497.0,497.0,497.0,497.0,497.0,497.0,497.0,501.0,501.0,501.0,501.0,501.0,501.0,501.0,501.0,501.0,535.0,535.0,535.0,535.0,535.0,535.0,535.0,535.0,535.0,535.0,535.0,527.0,527.0,527.0,527.0,527.0,527.0,527.0,527.0,527.0,533.0,533.0,533.0,533.0,533.0,533.0,533.0,533.0,533.0,533.0,533.0,509.0,509.0,509.0,509.0,509.0,509.0,509.0,509.0,509.0
0,497.0,516.0,509.0,500,500,500,4.0,19.0,24.0,499.4,525.1333333333333,513.2666666666667,501.0,527.0,513.0,501.0,501.0,501.0,501.0,501.0,501.0,501.0,501.0,501.0,501.0,501.0,501.0,497.0,497.0,497.0,497.0,497.0,497.0,497.0,497.0,527.0,527.0,527.0,527.0,527.0,527.0,527.0,527.0,527.0,527.0,527.0,527.0,516.0,516.0,516.0,516.0,516.0,516.0,516.0,516.0,509.0,509.0,509.0,509.0,509.0,509.0,509.0,509.0,509.0,509.0,509.0,509.0,513.0,513.0,513.0,513.0,513.0,513.0,513.0,513.0
0,497.0,516.0,500.0,500,500,500,35.0,0.0,13.0,506.3333333333333,516.0,509.53333333333336,532.0,516.0,513.0,497.0,497.0,497.0,497.0,497.0,497.0,497.0,497.0,497.0,497.0,497.0,532.0,532.0,532.0,532.0,532.0,532.0,532.0,532.0,532.0,516.0,516.0,516.0,516.0,516.0,516.0,516.0,516.0,516.0,516.0,516.0,516.0,516.0,516.0,516.0,516.0,516.0,516.0,516.0,516.0,513.0,513.0,513.0,513.0,513.0,513.0,513.0,513.0,513.0,513.0,513.0,500.0,500.0,500.0,500.0,500.0,500.0,500.0,500.0,500.0
0,523.0,494.0,492.0,500,500,500,9.0,22.0,8.0,529.9,510.8666666666667,498.1333333333333,532.0,516.0,500.0,532.0,532.0,532.0,532.0,532.0,532.0,532.0,532.0,532.0,532.0,532.0,523.0,523.0,523.0,523.0,523.0,523.0,523.0,523.0,523.0,516.0,516.0,516.0,516.0,516.0,516.0,516.0,516.0,516.0,516.0,516.0,494.0,494.0,494.0,494.0,494.0,494.0,494.0,494.0,494.0,500.0,500.0,500.0,500.0,500.0,500.0,500.0,500.0,500.0,500.0,500.0,492.0,492.0,492.0,492.0,492.0,492.0,492.0,492.0,492.0
0,521.0,494.0,492.0,500,500,500,11.0,22.0,3.0,522.2666666666667,498.4,493.1,523.0,506.0,495.0,523.0,523.0,523.0,523.0,523.0,523.0,523.0,523.0,523.0,521.0,521.0,521.0,521.0,521.0,521.0,521.0,521.0,521.0,521.0,521.0,494.0,494.0,494.0,494.0,494.0,494.0,494.0,494.0,494.0,506.0,506.0,506.0,506.0,506.0,506.0,506.0,506.0,506.0,506.0,506.0,492.0,492.0,492.0,492.0,492.0,492.0,492.0,492.0,492.0,495.0,495.0,495.0,495.0,495.0,495.0,495.0,495.0,495.0,495.0,495.0
0,521.0,473.0,495.0,500,500,500,3.0,33.0,14.0,521.5,500.5,497.3333333333333,524.0,506.0,509.0,521.0,521.0,521.0,521.0,521.0,521.0,521.0,521.0,521.0,521.0,521.0,521.0,521.0,521.0,524.0,524.0,524.0,524.0,524.0,524.0,506.0,506.0,506.0,506.0,506.0,506.0,506.0,506.0,506.0,506.0,506.0,506.0,506.0,506.0,473.0,473.0,473.0,473.0,473.0,473.0,495.0,495.0,495.0,495.0,495.0,495.0,495.0,495.0,495.0,495.0,495.0,495.0,495.0,495.0,509.0,509.0,509.0,509.0,509.0,509.0
0,508.0,473.0,509.0,500,500,500,16.0,45.0,41.0,517.8333333333334,492.8,517.5,524.0,518.0,536.0,524.0,524.0,524.0,524.0,524.0,524.0,524.0,524.0,524.0,508.0,508.0,508.0,508.0,508.0,508.0,508.0,508.0,508.0,508.0,508.0,473.0,473.0,473.0,473.0,473.0,473.0,473.0,473.0,473.0,518.0,518.0,518.0,518.0,518.0,518.0,518.0,518.0,518.0,518.0,518.0,509.0,509.0,509.0,509.0,509.0,509.0,509.0,509.0,509.0,536.0,536.0,536.0,536.0,536.0,536.0,536.0,536.0,536.0,536.0,536.0
0,504.0,518.0,507.0,500,500,500,20.0,48.0,29.0,511.73333333333335,506.4,524.9333333333333,508.0,521.0,536.0,508.0,508.0,508.0,508.0,508.0,508.0,508.0,508.0,508.0,508.0,508.0,508.0,508.0,508.0,508.0,508.0,504.0,504.0,504.0,504.0,518.0,518.0,518.0,518.0,518.0,518.0,518.0,518.0,518.0,518.0,518.0,518.0,518.0,518.0,518.0,518.0,521.0,521.0,521.0,521.0,536.0,536.0,536.0,536.0,536.0,536.0,536.0,536.0,536.0,536.0,536.0,536.0,536.0,536.0,536.0,536.0,507.0,507.0,507.0,507.0
0,504.0,519.0,497.0,500,500,500,4.0,3.0,39.0,504.26666666666665,519.7333333333333,503.6,504.0,521.0,507.0,504.0,504.0,504.0,504.0,504.0,504.0,504.0,504.0,504.0,504.0,504.0,504.0,504.0,504.0,504.0,504.0,504.0,504.0,504.0,504.0,521.0,521.0,521.0,519.0,519.0,519.0,519.0,519.0,519.0,519.0,519.0,519.0,519.0,519.0,519.0,519.0,519.0,519.0,519.0,519.0,507.0,507.0,507.0,497.0,497.0,497.0,497.0,497.0,497.0,497.0,497.0,497.0,497.0,497.0,497.0,497.0,497.0,497.0,497.0,497.0
0,499.0,519.0,497.0,500,500,500,12.0,17.0,20.0,502.3666666666667,522.1,506.73333333333335,511.0,536.0,517.0,504.0,504.0,504.0,511.0,511.0,511.0,499.0,499.0,499.0,499.0,499.0,499.0,499.0,499.0,499.0,499.0,499.0,499.0,499.0,499.0,519.0,519.0,519.0,536.0,536.0,536.0,522.0,522.0,522.0,522.0,522.0,522.0,522.0,522.0,522.0,522.0,522.0,522.0,522.0,522.0,497.0,497.0,497.0,501.0,501.0,501.0,517.0,517.0,517.0,517.0,517.0,517.0,517.0,517.0,517.0,517.0,517.0,517.0,517.0,517.0
0,492.0,522.0,517.0,500,500,500,7.0,1.0,3.0,496.43333333333334,522.3666666666667,518.1,499.0,523.0,520.0,499.0,499.0,499.0,499.0,499.0,499.0,499.0,499.0,499.0,492.0,492.0,492.0,492.0,492.0,492.0,492.0,492.0,492.0,492.0,492.0,522.0,522.0,522.0,522.0,522.0,522.0,522.0,522.0,522.0,523.0,523.0,523.0,523.0,523.0,523.0,523.0,523.0,523.0,523.0,523.0,517.0,517.0,517.0,517.0,517.0,517.0,517.0,517.0,517.0,520.0,520.0,520.0,520.0,520.0,520.0,520.0,520.0,520.0,520.0,520.0
0,492.0,505.0,480.0,500,500,500,7.0,18.0,40.0,494.03333333333336,520.9666666666667,515.3,496.0,523.0,520.0,492.0,492.0,492.0,492.0,492.0,492.0,492.0,492.0,492.0,492.0,492.0,492.0,492.0,492.0,492.0,496.0,496.0,496.0,496.0,496.0,523.0,523.0,523.0,523.0,523.0,523.0,523.0,523.0,523.0,523.0,523.0,523.0,523.0,523.0,523.0,505.0,505.0,505.0,505.0,505.0,520.0,520.0,520.0,520.0,520.0,520.0,520.0,520.0,520.0,520.0,520.0,520.0,520.0,520.0,520.0,480.0,480.0,480.0,480.0,480.0
0,496.0,504.0,480.0,500,500,500,7.0,19.0,40.0,495.4,510.2,494.6,499.0,505.0,493.0,496.0,496.0,496.0,496.0,496.0,496.0,496.0,496.0,496.0,496.0,496.0,496.0,496.0,499.0,499.0,499.0,499.0,499.0,499.0,499.0,505.0,505.0,505.0,505.0,505.0,505.0,505.0,505.0,505.0,505.0,505.0,505.0,505.0,504.0,504.0,504.0,504.0,504.0,504.0,504.0,480.0,480.0,480.0,480.0,480.0,480.0,480.0,480.0,480.0,480.0,480.0,480.0,480.0,493.0,493.0,493.0,493.0,493.0,493.0,493.0
0,499.0,487.0,491.0,500,500,500,6.0,17.0,2.0,501.8,496.06666666666666,492.06666666666666,505.0,504.0,493.0,499.0,499.0,499.0,499.0,499.0,499.0,505.0,505.0,505.0,505.0,505.0,505.0,505.0,505.0,505.0,505.0,505.0,505.0,505.0,505.0,504.0,504.0,504.0,504.0,504.0,504.0,487.0,487.0,487.0,487.0,487.0,487.0,487.0,487.0,487.0,487.0,487.0,487.0,487.0,487.0,493.0,493.0,493.0,493.0,493.0,493.0,491.0,491.0,491.0,491.0,491.0,491.0,491.0,491.0,491.0,491.0,491.0,491.0,491.0,491.0
0,504.0,487.0,491.0,500,500,500,1.0,9.0,22.0,504.56666666666666,490.9,500.53333333333336,505.0,496.0,513.0,505.0,505.0,505.0,505.0,505.0,505.0,505.0,504.0,504.0,504.0,504.0,504.0,504.0,504.0,504.0,504.0,504.0,504.0,504.0,504.0,487.0,487.0,487.0,487.0,487.0,487.0,487.0,496.0,496.0,496.0,496.0,496.0,496.0,496.0,496.0,496.0,496.0,496.0,496.0,496.0,491.0,491.0,491.0,491.0,491.0,491.0,491.0,513.0,513.0,513.0,513.0,513.0,513.0,513.0,513.0,513.0,513.0,513.0,513.0,513.0
0,504.0,490.0,513.0,500,500,500,22.0,6.0,3.0,511.3333333333333,494.0,514.0,526.0,496.0,516.0,504.0,504.0,504.0,504.0,504.0,504.0,504.0,504.0,504.0,504.0,526.0,526.0,526.0,526.0,526.0,526.0,526.0,526.0,526.0,526.0,496.0,496.0,496.0,496.0,496.0,496.0,496.0,496.0,496.0,496.0,490.0,490.0,490.0,490.0,490.0,490.0,490.0,490.0,490.0,490.0,513.0,513.0,513.0,513.0,513.0,513.0,513.0,513.0,513.0,513.0,516.0,516.0,516.0,516.0,516.0,516.0,516.0,516.0,516.0,516.0
0,526.0,490.0,516.0,500,500,500,22.0,6.0,3.0,521.6,491.2,515.4,526.0,490.0,516.0,526.0,526.0,526.0,526.0,526.0,526.0,526.0,526.0,526.0,526.0,526.0,526.0,526.0,526.0,526.0,526.0,526.0,526.0,526.0,524.0,490.0,490.0,490.0,490.0,490.0,490.0,490.0,490.0,490.0,490.0,490.0,490.0,490.0,490.0,490.0,490.0,490.0,490.0,490.0,507.0,516.0,516.0,516.0,516.0,516.0,516.0,516.0,516.0,516.0,516.0,516.0,516.0,516.0,516.0,516.0,516.0,516.0,516.0,516.0,511.0
0,524.0,507.0,492.0,500,500,500,2.0,33.0,24.0,524.9333333333333,508.8666666666667,504.73333333333335,525.0,523.0,511.0,524.0,524.0,524.0,524.0,524.0,524.0,524.0,525.0,525.0,525.0,525.0,525.0,525.0,525.0,525.0,525.0,525.0,525.0,525.0,525.0,507.0,507.0,507.0,507.0,507.0,507.0,507.0,523.0,523.0,523.0,523.0,523.0,523.0,523.0,523.0,523.0,523.0,523.0,523.0,523.0,511.0,511.0,511.0,511.0,511.0,511.0,511.0,492.0,492.0,492.0,492.0,492.0,492.0,492.0,492.0,492.0,492.0,492.0,492.0,492.0
0,491.0,523.0,492.0,500,500,500,34.0,32.0,20.0,516.4666666666667,533.8,496.6666666666667,525.0,555.0,512.0,525.0,525.0,525.0,525.0,525.0,525.0,491.0,491.0,491.0,491.0,513.0,513.0,513.0,513.0,513.0,513.0,513.0,513.0,513.0,513.0,523.0,523.0,523.0,523.0,523.0,523.0,524.0,524.0,524.0,524.0,555.0,555.0,555.0,555.0,555.0,555.0,555.0,555.0,555.0,555.0,492.0,492.0,492.0,492.0,492.0,492.0,512.0,512.0,512.0,512.0,498.0,498.0,498.0,498.0,498.0,498.0,498.0,498.0,498.0,498.0
0,505.0,555.0,496.0,500,500,500,34.0,35.0,20.0,510.2,546.2333333333333,498.4,513.0,558.0,498.0,513.0,513.0,513.0,513.0,513.0,513.0,513.0,513.0,513.0,513.0,513.0,505.0,505.0,505.0,505.0,505.0,505.0,505.0,505.0,508.0,555.0,555.0,555.0,555.0,555.0,555.0,555.0,555.0,555.0,555.0,555.0,558.0,558.0,558.0,558.0,558.0,558.0,558.0,558.0,543.0,498.0,498.0,498.0,498.0,498.0,498.0,498.0,498.0,498.0,498.0,496.0,496.0,496.0,496.0,496.0,496.0,496.0,496.0,496.0,504.0
0,501.0,528.0,504.0,500,500,500,7.0,30.0,11.0,506.06666666666666,546.0,501.73333333333335,508.0,543.0,507.0,508.0,508.0,508.0,508.0,508.0,508.0,508.0,508.0,508.0,508.0,508.0,508.0,508.0,501.0,501.0,501.0,501.0,501.0,501.0,501.0,543.0,543.0,543.0,543.0,543.0,543.0,543.0,543.0,543.0,543.0,543.0,543.0,543.0,528.0,528.0,528.0,528.0,528.0,528.0,528.0,504.0,504.0,504.0,504.0,504.0,504.0,504.0,504.0,504.0,504.0,504.0,504.0,504.0,507.0,507.0,507.0,507.0,507.0,507.0,507.0
0,501.0,509.0,504.0,500,500,500,7.0,15.0,3.0,504.03333333333336,534.5,505.9,508.0,543.0,510.0,508.0,508.0,501.0,501.0,501.0,501.0,501.0,501.0,501.0,501.0,501.0,501.0,501.0,501.0,501.0,501.0,501.0,501.0,501.0,501.0,543.0,543.0,528.0,528.0,528.0,528.0,528.0,528.0,528.0,528.0,528.0,528.0,528.0,528.0,528.0,528.0,528.0,509.0,509.0,509.0,504.0,504.0,507.0,507.0,507.0,507.0,507.0,507.0,507.0,507.0,507.0,507.0,507.0,507.0,507.0,507.0,507.0,510.0,510.0,510.0
0,489.0,509.0,504.0,500,500,500,12.0,29.0,6.0,496.2,523.1333333333333,507.2,501.0,538.0,510.0,501.0,501.0,501.0,501.0,501.0,501.0,501.0,489.0,489.0,489.0,489.0,489.0,489.0,489.0,489.0,489.0,489.0,489.0,489.0,489.0,509.0,509.0,509.0,509.0,509.0,509.0,509.0,538.0,538.0,538.0,538.0,538.0,538.0,538.0,538.0,538.0,538.0,538.0,538.0,538.0,510.0,510.0,510.0,510.0,510.0,510.0,510.0,504.0,504.0,504.0,504.0,504.0,504.0,504.0,504.0,504.0,504.0,504.0,504.0,504.0
0,489.0,488.0,504.0,500,500,500,12.0,50.0,6.0,492.4,528.6,505.8,495.0,538.0,510.0,489.0,489.0,489.0,489.0,489.0,489.0,489.0,489.0,489.0,489.0,489.0,489.0,489.0,489.0,489.0,489.0,489.0,489.0,495.0,495.0,538.0,538.0,538.0,538.0,538.0,538.0,538.0,538.0,538.0,538.0,538.0,538.0,538.0,538.0,538.0,538.0,538.0,538.0,488.0,488.0,504.0,504.0,504.0,504.0,504.0,504.0,504.0,504.0,504.0,504.0,504.0,504.0,504.0,504.0,504.0,504.0,504.0,504.0,510.0,510.0
0,495.0,487.0,510.0,500,500,500,10.0,51.0,21.0,495.4,497.6,514.8,499.0,488.0,525.0,495.0,495.0,495.0,495.0,495.0,495.0,499.0,499.0,499.0,499.0,499.0,499.0,499.0,499.0,499.0,499.0,499.0,499.0,499.0,499.0,488.0,488.0,488.0,488.0,488.0,488.0,487.0,487.0,487.0,487.0,487.0,487.0,487.0,487.0,487.0,487.0,487.0,487.0,487.0,487.0,510.0,510.0,510.0,510.0,510.0,510.0,525.0,525.0,525.0,525.0,525.0,525.0,525.0,525.0,525.0,525.0,525.0,525.0,525.0,525.0
0,509.0,493.0,508.0,500,500,500,11.0,23.0,17.0,508.23333333333335,501.8333333333333,510.8666666666667,510.0,510.0,510.0,509.0,509.0,509.0,510.0,510.0,510.0,510.0,510.0,510.0,510.0,510.0,510.0,510.0,510.0,510.0,510.0,510.0,510.0,510.0,510.0,493.0,493.0,493.0,510.0,510.0,510.0,510.0,510.0,510.0,510.0,510.0,510.0,510.0,510.0,510.0,510.0,510.0,510.0,510.0,510.0,510.0,510.0,510.0,508.0,508.0,508.0,508.0,508.0,508.0,508.0,508.0,508.0,508.0,508.0,508.0,508.0,508.0,508.0,508.0,508.0
0,509.0,524.0,512.0,500,500,500,5.0,24.0,22.0,510.6333333333333,524.1333333333333,518.6,514.0,534.0,530.0,514.0,514.0,514.0,514.0,514.0,514.0,509.0,509.0,509.0,509.0,509.0,509.0,509.0,509.0,509.0,509.0,509.0,509.0,509.0,496.0,524.0,524.0,524.0,524.0,524.0,524.0,534.0,534.0,534.0,534.0,534.0,534.0,534.0,534.0,534.0,534.0,534.0,534.0,534.0,519.0,512.0,512.0,512.0,512.0,512.0,512.0,530.0,530.0,530.0,530.0,530.0,530.0,530.0,530.0,530.0,530.0,530.0,530.0,530.0,512.0
0,496.0,519.0,496.0,500,500,500,21.0,15.0,34.0,505.0,527.1666666666666,520.4666666666667,517.0,534.0,530.0,509.0,509.0,509.0,509.0,509.0,509.0,509.0,509.0,496.0,496.0,496.0,496.0,496.0,496.0,496.0,496.0,496.0,496.0,517.0,517.0,534.0,534.0,534.0,534.0,534.0,534.0,534.0,534.0,519.0,519.0,519.0,519.0,519.0,519.0,519.0,519.0,519.0,519.0,524.0,524.0,530.0,530.0,530.0,530.0,530.0,530.0,530.0,530.0,512.0,512.0,512.0,512.0,512.0,512.0,512.0,512.0,512.0,512.0,496.0,496.0
0,496.0,519.0,496.0,500,500,500,21.0,15.0,34.0,506.9,525.1666666666666,512.0666666666667,517.0,524.0,512.0,496.0,496.0,496.0,496.0,496.0,496.0,496.0,496.0,496.0,496.0,517.0,517.0,517.0,517.0,517.0,517.0,517.0,517.0,517.0,516.0,519.0,519.0,519.0,519.0,519.0,519.0,519.0,519.0,519.0,519.0,524.0,524.0,524.0,524.0,524.0,524.0,524.0,524.0,524.0,515.0,512.0,512.0,512.0,512.0,512.0,512.0,512.0,512.0,512.0,512.0,496.0,496.0,496.0,496.0,496.0,496.0,496.0,496.0,496.0,520.0
0,496.0,515.0,496.0,500,500,500,21.0,19.0,34.0,507.8333333333333,522.6333333333333,510.73333333333335,517.0,524.0,520.0,496.0,496.0,496.0,496.0,496.0,496.0,517.0,517.0,517.0,517.0,517.0,517.0,517.0,517.0,517.0,516.0,516.0,516.0,516.0,516.0,519.0,519.0,519.0,519.0,519.0,519.0,524.0,524.0,524.0,524.0,524.0,524.0,524.0,524.0,524.0,515.0,515.0,515.0,515.0,515.0,512.0,512.0,512.0,512.0,512.0,512.0,496.0,496.0,496.0,496.0,496.0,496.0,496.0,496.0,496.0,520.0,520.0,520.0,520.0,520.0
0,516.0,496.0,513.0,500,500,500,12.0,28.0,28.0,522.1,509.7,512.6,528.0,515.0,524.0,516.0,516.0,516.0,516.0,516.0,528.0,528.0,528.0,528.0,528.0,528.0,528.0,528.0,527.0,527.0,527.0,527.0,527.0,527.0,527.0,515.0,515.0,515.0,515.0,515.0,501.0,501.0,501.0,501.0,501.0,501.0,501.0,501.0,496.0,496.0,496.0,496.0,496.0,496.0,496.0,520.0,520.0,520.0,520.0,520.0,524.0,524.0,524.0,524.0,524.0,524.0,524.0,524.0,513.0,513.0,513.0,513.0,513.0,513.0,513.0
0,527.0,491.0,513.0,500,500,500,1.0,10.0,11.0,527.1333333333333,495.3333333333333,514.4666666666667,527.0,496.0,513.0,527.0,527.0,527.0,527.0,527.0,527.0,527.0,527.0,527.0,527.0,527.0,527.0,527.0,527.0,527.0,527.0,527.0,527.0,527.0,527.0,496.0,496.0,496.0,496.0,496.0,496.0,496.0,496.0,496.0,496.0,496.0,496.0,491.0,491.0,491.0,491.0,491.0,491.0,491.0,491.0,513.0,513.0,513.0,513.0,513.0,513.0,513.0,513.0,513.0,513.0,513.0,513.0,513.0,513.0,513.0,513.0,513.0,513.0,513.0,513.0
0,522.0,486.0,499.0,500,500,500,5.0,10.0,14.0,525.8333333333334,490.3333333333333,509.73333333333335,527.0,491.0,513.0,527.0,527.0,527.0,527.0,527.0,527.0,527.0,527.0,527.0,527.0,527.0,527.0,527.0,522.0,522.0,522.0,522.0,522.0,522.0,522.0,491.0,491.0,491.0,491.0,491.0,491.0,491.0,491.0,491.0,491.0,491.0,491.0,491.0,486.0,486.0,486.0,486.0,486.0,486.0,486.0,513.0,513.0,513.0,513.0,513.0,513.0,513.0,513.0,513.0,513.0,513.0,513.0,513.0,499.0,499.0,499.0,499.0,499.0,499.0,499.0
0,503.0,486.0,492.0,500,500,500,24.0,26.0,21.0,516.6333333333333,495.43333333333334,500.8333333333333,522.0,512.0,508.0,522.0,522.0,522.0,522.0,522.0,522.0,522.0,520.0,520.0,520.0,503.0,503.0,503.0,503.0,503.0,503.0,503.0,503.0,503.0,503.0,486.0,486.0,486.0,486.0,486.0,486.0,486.0,512.0,512.0,512.0,503.0,503.0,503.0,503.0,503.0,503.0,503.0,503.0,503.0,503.0,499.0,499.0,499.0,499.0,499.0,499.0,499.0,508.0,508.0,508.0,492.0,492.0,492.0,492.0,492.0,492.0,492.0,492.0,492.0,492.0
0,499.0,503.0,492.0,500,500,500,23.0,49.0,23.0,508.23333333333335,502.6333333333333,496.53333333333336,503.0,535.0,515.0,503.0,503.0,503.0,503.0,503.0,503.0,503.0,503.0,503.0,503.0,503.0,503.0,503.0,503.0,503.0,503.0,499.0,499.0,499.0,499.0,503.0,503.0,503.0,503.0,503.0,503.0,503.0,503.0,503.0,503.0,503.0,503.0,503.0,503.0,503.0,503.0,535.0,535.0,535.0,535.0,492.0,492.0,492.0,492.0,492.0,492.0,492.0,492.0,492.0,492.0,492.0,492.0,492.0,492.0,492.0,492.0,515.0,515.0,515.0,515.0
0,499.0,535.0,515.0,500,500,500,4.0,41.0,34.0,500.3333333333333,529.3333333333334,511.8333333333333,501.0,544.0,526.0,499.0,499.0,499.0,499.0,499.0,499.0,499.0,499.0,499.0,499.0,499.0,499.0,499.0,499.0,501.0,501.0,501.0,501.0,501.0,501.0,535.0,535.0,535.0,535.0,535.0,535.0,535.0,535.0,535.0,535.0,535.0,535.0,535.0,535.0,544.0,544.0,544.0,544.0,544.0,544.0,515.0,515.0,515.0,515.0,515.0,515.0,515.0,515.0,515.0,515.0,515.0,515.0,515.0,515.0,526.0,526.0,526.0,526.0,526.0,526.0
0,499.0,535.0,515.0,500,500,500,4.0,41.0,34.0,499.93333333333334,537.5333333333333,518.6333333333333,501.0,544.0,526.0,499.0,499.0,499.0,499.0,499.0,499.0,499.0,501.0,501.0,501.0,501.0,501.0,501.0,501.0,501.0,501.0,501.0,501.0,501.0,501.0,535.0,535.0,535.0,535.0,535.0,535.0,535.0,544.0,544.0,544.0,544.0,544.0,544.0,544.0,544.0,544.0,544.0,544.0,544.0,544.0,515.0,515.0,515.0,515.0,515.0,515.0,515.0,526.0,526.0,526.0,526.0,526.0,526.0,526.0,526.0,526.0,526.0,526.0,526.0,526.0
0,495.0,536.0,494.0,500,500,500,6.0,11.0,32.0,499.3333333333333,542.6333333333333,513.1,501.0,546.0,526.0,501.0,501.0,501.0,501.0,501.0,495.0,495.0,495.0,495.0,495.0,495.0,495.0,501.0,501.0,501.0,501.0,501.0,501.0,501.0,501.0,544.0,544.0,544.0,544.0,544.0,546.0,546.0,546.0,546.0,546.0,546.0,546.0,536.0,536.0,536.0,536.0,536.0,536.0,536.0,536.0,526.0,526.0,526.0,526.0,526.0,503.0,503.0,503.0,503.0,503.0,503.0,503.0,494.0,494.0,494.0,494.0,494.0,494.0,494.0,494.0
0,497.0,524.0,494.0,500,500,500,6.0,22.0,10.0,499.2,535.2666666666667,497.5,501.0,536.0,504.0,501.0,501.0,501.0,501.0,501.0,501.0,501.0,501.0,501.0,501.0,501.0,501.0,501.0,501.0,497.0,497.0,497.0,497.0,497.0,497.0,536.0,536.0,536.0,536.0,536.0,536.0,536.0,536.0,536.0,536.0,536.0,536.0,536.0,536.0,524.0,524.0,524.0,524.0,524.0,524.0,494.0,494.0,494.0,494.0,494.0,494.0,494.0,494.0,494.0,494.0,494.0,494.0,494.0,494.0,504.0,504.0,504.0,504.0,504.0,504.0
0,495.0,518.0,504.0,500,500,500,6.0,18.0,19.0,496.4,522.2,506.96666666666664,497.0,524.0,513.0,497.0,497.0,497.0,497.0,497.0,497.0,497.0,495.0,495.0,495.0,495.0,495.0,495.0,495.0,495.0,495.0,495.0,495.0,495.0,495.0,524.0,524.0,524.0,524.0,524.0,524.0,524.0,518.0,518.0,518.0,518.0,518.0,518.0,518.0,518.0,518.0,518.0,518.0,518.0,518.0,504.0,504.0,504.0,504.0,504.0,504.0,504.0,513.0,513.0,513.0,513.0,513.0,513.0,513.0,513.0,513.0,513.0,513.0,513.0,513.0
0,495.0,481.0,505.0,500,500,500,8.0,37.0,11.0,497.8,510.0,512.3,503.0,518.0,516.0,495.0,495.0,495.0,495.0,499.0,499.0,499.0,499.0,499.0,499.0,499.0,499.0,503.0,503.0,503.0,503.0,503.0,503.0,503.0,503.0,518.0,518.0,518.0,518.0,516.0,516.0,516.0,516.0,516.0,516.0,516.0,516.0,481.0,481.0,481.0,481.0,481.0,481.0,481.0,481.0,513.0,513.0,513.0,513.0,516.0,516.0,516.0,516.0,516.0,516.0,516.0,516.0,505.0,505.0,505.0,505.0,505.0,505.0,505.0,505.0
0,503.0,481.0,505.0,500,500,500,13.0,35.0,13.0,504.0,489.8,509.8,512.0,490.0,518.0,503.0,503.0,503.0,503.0,503.0,503.0,503.0,503.0,503.0,503.0,503.0,503.0,503.0,503.0,512.0,512.0,512.0,512.0,512.0,512.0,481.0,481.0,481.0,481.0,481.0,481.0,481.0,481.0,481.0,481.0,481.0,481.0,481.0,481.0,490.0,490.0,490.0,490.0,490.0,490.0,505.0,505.0,505.0,505.0,505.0,505.0,505.0,505.0,505.0,505.0,505.0,505.0,505.0,505.0,518.0,518.0,518.0,518.0,518.0,518.0
0,512.0,487.0,518.0,500,500,500,16.0,9.0,14.0,512.0666666666667,487.4,515.6666666666666,519.0,490.0,519.0,512.0,512.0,512.0,512.0,512.0,512.0,512.0,512.0,512.0,512.0,519.0,519.0,519.0,519.0,519.0,519.0,519.0,519.0,519.0,519.0,490.0,490.0,490.0,490.0,490.0,490.0,490.0,490.0,490.0,490.0,487.0,487.0,487.0,487.0,487.0,487.0,487.0,487.0,487.0,487.0,518.0,518.0,518.0,518.0,518.0,518.0,518.0,518.0,518.0,518.0,519.0,519.0,519.0,519.0,519.0,519.0,519.0,519.0,519.0,519.0
0,527.0,509.0,498.0,500,500,500,14.0,78.0,21.0,527.5333333333333,539.6666666666666,504.4,533.0,565.0,504.0,533.0,533.0,527.0,527.0,527.0,527.0,527.0,527.0,527.0,527.0,527.0,527.0,527.0,527.0,527.0,527.0,527.0,527.0,527.0,527.0,509.0,509.0,565.0,565.0,565.0,565.0,565.0,565.0,565.0,565.0,565.0,565.0,565.0,565.0,565.0,565.0,565.0,565.0,565.0,565.0,498.0,498.0,504.0,504.0,504.0,504.0,504.0,504.0,504.0,504.0,504.0,504.0,504.0,504.0,504.0,504.0,504.0,504.0,504.0,504.0
0,512.0,517.0,504.0,500,500,500,15.0,48.0,3.0,522.1333333333333,545.3666666666667,505.1666666666667,527.0,565.0,507.0,527.0,527.0,527.0,527.0,527.0,527.0,519.0,519.0,519.0,519.0,519.0,519.0,519.0,512.0,512.0,512.0,512.0,512.0,512.0,512.0,565.0,565.0,565.0,565.0,565.0,565.0,522.0,522.0,522.0,522.0,522.0,522.0,522.0,517.0,517.0,517.0,517.0,517.0,517.0,517.0,504.0,504.0,504.0,504.0,504.0,504.0,506.0,506.0,506.0,506.0,506.0,506.0,506.0,507.0,507.0,507.0,507.0,507.0,507.0,507.0
0,504.0,513.0,507.0,500,500,500,15.0,9.0,34.0,512.1,517.3,511.23333333333335,512.0,517.0,540.0,512.0,512.0,512.0,512.0,512.0,512.0,512.0,512.0,512.0,512.0,512.0,512.0,512.0,512.0,512.0,512.0,504.0,504.0,504.0,504.0,517.0,517.0,517.0,517.0,517.0,517.0,517.0,517.0,517.0,517.0,517.0,517.0,517.0,517.0,517.0,517.0,513.0,513.0,513.0,513.0,507.0,507.0,507.0,507.0,507.0,507.0,507.0,507.0,507.0,507.0,507.0,507.0,507.0,507.0,507.0,507.0,540.0,540.0,540.0,540.0
0,504.0,489.0,509.0,500,500,500,8.0,28.0,33.0,505.8666666666667,509.1333333333333,526.1,504.0,513.0,540.0,504.0,504.0,504.0,504.0,504.0,504.0,504.0,504.0,504.0,504.0,504.0,504.0,504.0,504.0,504.0,504.0,504.0,504.0,504.0,504.0,513.0,513.0,513.0,513.0,513.0,513.0,513.0,513.0,513.0,513.0,513.0,513.0,513.0,513.0,489.0,489.0,489.0,489.0,489.0,489.0,540.0,540.0,540.0,540.0,540.0,540.0,540.0,540.0,540.0,540.0,540.0,540.0,540.0,540.0,509.0,509.0,509.0,509.0,509.0,509.0
0,491.0,489.0,509.0,500,500,500,13.0,12.0,5.0,501.4,491.4,510.0,504.0,501.0,514.0,504.0,504.0,504.0,504.0,504.0,504.0,504.0,504.0,504.0,504.0,504.0,504.0,504.0,491.0,491.0,491.0,491.0,491.0,491.0,491.0,489.0,489.0,489.0,489.0,489.0,489.0,489.0,489.0,489.0,489.0,489.0,489.0,489.0,501.0,501.0,501.0,501.0,501.0,501.0,501.0,509.0,509.0,509.0,509.0,509.0,509.0,509.0,509.0,509.0,509.0,509.0,509.0,509.0,514.0,514.0,514.0,514.0,514.0,514.0,514.0
0,491.0,498.0,514.0,500,500,500,13.0,12.0,7.0,493.3,499.2,514.1333333333333,496.0,501.0,516.0,491.0,491.0,491.0,491.0,491.0,491.0,491.0,491.0,491.0,491.0,491.0,491.0,496.0,496.0,496.0,496.0,496.0,496.0,496.0,496.0,501.0,501.0,501.0,501.0,501.0,501.0,501.0,501.0,501.0,501.0,501.0,498.0,498.0,498.0,498.0,498.0,498.0,498.0,498.0,498.0,514.0,514.0,514.0,514.0,514.0,514.0,514.0,514.0,514.0,514.0,514.0,516.0,516.0,516.0,516.0,516.0,516.0,516.0,516.0,516.0
0,496.0,486.0,516.0,500,500,500,6.0,12.0,7.0,499.0,492.0,519.5,502.0,498.0,523.0,496.0,496.0,496.0,496.0,496.0,502.0,502.0,502.0,502.0,502.0,502.0,502.0,502.0,502.0,502.0,502.0,502.0,502.0,502.0,502.0,498.0,498.0,498.0,498.0,498.0,486.0,486.0,486.0,486.0,486.0,486.0,486.0,486.0,486.0,486.0,486.0,486.0,486.0,486.0,486.0,516.0,516.0,516.0,516.0,516.0,523.0,523.0,523.0,523.0,523.0,523.0,523.0,523.0,523.0,523.0,523.0,523.0,523.0,523.0,523.0
0,502.0,478.0,520.0,500,500,500,6.0,8.0,20.0,504.53333333333336,481.53333333333336,526.5333333333333,508.0,486.0,540.0,502.0,508.0,508.0,508.0,508.0,508.0,508.0,508.0,508.0,508.0,508.0,504.0,504.0,504.0,504.0,504.0,504.0,504.0,504.0,504.0,486.0,479.0,479.0,479.0,479.0,479.0,479.0,479.0,479.0,479.0,479.0,478.0,478.0,478.0,478.0,478.0,478.0,478.0,478.0,478.0,523.0,520.0,520.0,520.0,520.0,520.0,520.0,520.0,520.0,520.0,520.0,540.0,540.0,540.0,540.0,540.0,540.0,540.0,540.0,540.0
0,504.0,478.0,529.0,500,500,500,2.0,24.0,11.0,504.6,485.2,536.7,506.0,502.0,540.0,504.0,504.0,504.0,504.0,504.0,504.0,504.0,504.0,504.0,504.0,506.0,506.0,506.0,506.0,506.0,506.0,506.0,506.0,506.0,506.0,478.0,478.0,478.0,478.0,478.0,478.0,478.0,478.0,478.0,478.0,502.0,502.0,502.0,502.0,502.0,502.0,502.0,502.0,502.0,502.0,540.0,540.0,540.0,540.0,540.0,540.0,540.0,540.0,540.0,540.0,529.0,529.0,529.0,529.0,529.0,529.0,529.0,529.0,529.0,529.0
0,506.0,502.0,526.0,500,500,500,2.0,34.0,14.0,505.93333333333334,503.53333333333336,528.6666666666666,506.0,512.0,529.0,506.0,506.0,506.0,506.0,506.0,506.0,506.0,506.0,506.0,506.0,506.0,506.0,506.0,506.0,506.0,506.0,506.0,506.0,506.0,506.0,502.0,502.0,502.0,502.0,502.0,502.0,502.0,502.0,502.0,502.0,502.0,512.0,512.0,512.0,512.0,512.0,512.0,512.0,512.0,512.0,529.0,529.0,529.0,529.0,529.0,529.0,529.0,529.0,529.0,529.0,529.0,526.0,526.0,526.0,526.0,526.0,526.0,526.0,526.0,526.0
0,495.0,512.0,509.0,500,500,500,11.0,27.0,17.0,502.7,520.1,520.9,506.0,539.0,526.0,506.0,506.0,506.0,506.0,506.0,506.0,506.0,506.0,506.0,506.0,506.0,495.0,495.0,495.0,495.0,495.0,495.0,495.0,495.0,495.0,512.0,512.0,512.0,512.0,512.0,512.0,512.0,512.0,512.0,512.0,512.0,539.0,539.0,539.0,539.0,539.0,539.0,539.0,539.0,539.0,526.0,526.0,526.0,526.0,526.0,526.0,526.0,526.0,526.0,526.0,526.0,509.0,509.0,509.0,509.0,509.0,509.0,509.0,509.0,509.0
0,495.0,539.0,509.0,500,500,500,19.0,43.0,17.0,501.5,538.5333333333333,514.0333333333333,514.0,555.0,526.0,495.0,495.0,495.0,495.0,495.0,495.0,495.0,495.0,495.0,495.0,495.0,509.0,509.0,509.0,514.0,514.0,514.0,514.0,514.0,514.0,539.0,539.0,539.0,539.0,539.0,539.0,539.0,539.0,539.0,539.0,539.0,555.0,555.0,555.0,545.0,545.0,545.0,545.0,545.0,545.0,509.0,509.0,509.0,509.0,509.0,509.0,509.0,509.0,509.0,509.0,509.0,526.0,526.0,526.0,512.0,512.0,512.0,512.0,512.0,512.0
0,513.0,517.0,500.0,500,500,500,5.0,38.0,26.0,513.5333333333333,536.9333333333333,508.8666666666667,514.0,545.0,512.0,514.0,514.0,514.0,514.0,514.0,514.0,514.0,514.0,514.0,513.0,513.0,513.0,513.0,513.0,513.0,513.0,513.0,513.0,513.0,513.0,545.0,545.0,545.0,545.0,545.0,545.0,545.0,545.0,545.0,517.0,517.0,517.0,517.0,517.0,517.0,517.0,517.0,517.0,517.0,517.0,512.0,512.0,512.0,512.0,512.0,512.0,512.0,512.0,512.0,500.0,500.0,500.0,500.0,500.0,500.0,500.0,500.0,500.0,500.0,500.0
0,513.0,506.0,500.0,500,500,500,0.0,11.0,9.0,513.0,512.9666666666667,503.3,513.0,517.0,509.0,513.0,513.0,513.0,513.0,513.0,513.0,513.0,513.0,513.0,513.0,513.0,513.0,513.0,513.0,513.0,513.0,513.0,513.0,513.0,513.0,517.0,517.0,517.0,517.0,517.0,517.0,517.0,517.0,517.0,506.0,506.0,506.0,506.0,506.0,506.0,506.0,506.0,506.0,506.0,506.0,500.0,500.0,500.0,500.0,500.0,500.0,500.0,500.0,500.0,509.0,509.0,509.0,509.0,509.0,509.0,509.0,509.0,509.0,509.0,509.0
0,502.0,496.0,498.0,500,500,500,11.0,10.0,11.0,508.1333333333333,503.6,504.6,513.0,506.0,509.0,513.0,513.0,502.0,502.0,502.0,502.0,502.0,502.0,502.0,502.0,502.0,502.0,502.0,508.0,508.0,508.0,508.0,508.0,508.0,508.0,506.0,506.0,504.0,504.0,504.0,504.0,504.0,504.0,504.0,504.0,504.0,504.0,504.0,496.0,496.0,496.0,496.0,496.0,496.0,496.0,509.0,509.0,503.0,503.0,503.0,503.0,503.0,503.0,503.0,503.0,503.0,503.0,503.0,498.0,498.0,498.0,498.0,498.0,498.0,498.0
0,506.0,496.0,494.0,500,500,500,6.0,8.0,9.0,506.1333333333333,498.1333333333333,498.8,508.0,496.0,498.0,508.0,508.0,508.0,508.0,508.0,508.0,508.0,508.0,508.0,508.0,508.0,508.0,508.0,508.0,508.0,506.0,506.0,506.0,506.0,506.0,496.0,496.0,496.0,496.0,496.0,496.0,496.0,496.0,496.0,496.0,496.0,496.0,496.0,496.0,496.0,496.0,496.0,496.0,496.0,496.0,498.0,498.0,498.0,498.0,498.0,498.0,498.0,498.0,498.0,498.0,498.0,498.0,498.0,498.0,498.0,494.0,494.0,494.0,494.0,494.0
0,506.0,486.0,494.0,500,500,500,2.0,10.0,13.0,506.53333333333336,494.6666666666667,496.26666666666665,508.0,496.0,507.0,506.0,506.0,506.0,506.0,506.0,506.0,506.0,506.0,506.0,506.0,506.0,506.0,506.0,506.0,506.0,508.0,508.0,508.0,508.0,508.0,496.0,496.0,496.0,496.0,496.0,496.0,496.0,496.0,496.0,496.0,496.0,496.0,496.0,496.0,496.0,486.0,486.0,486.0,486.0,486.0,494.0,494.0,494.0,494.0,494.0,494.0,494.0,494.0,494.0,494.0,494.0,494.0,494.0,494.0,494.0,507.0,507.0,507.0,507.0,507.0
0,508.0,486.0,507.0,500,500,500,6.0,10.0,19.0,508.46666666666664,490.2,505.3666666666667,512.0,494.0,513.0,508.0,508.0,508.0,508.0,508.0,508.0,508.0,508.0,508.0,508.0,508.0,508.0,512.0,512.0,512.0,512.0,512.0,512.0,512.0,512.0,486.0,486.0,486.0,486.0,486.0,486.0,486.0,486.0,486.0,486.0,486.0,486.0,494.0,494.0,494.0,494.0,494.0,494.0,494.0,494.0,507.0,507.0,507.0,507.0,507.0,507.0,507.0,507.0,507.0,507.0,507.0,507.0,513.0,513.0,513.0,513.0,513.0,513.0,513.0,513.0
0,509.0,494.0,513.0,500,500,500,3.0,28.0,12.0,511.4,499.6,515.4,512.0,522.0,525.0,512.0,512.0,512.0,512.0,512.0,512.0,512.0,512.0,512.0,512.0,512.0,512.0,512.0,509.0,509.0,509.0,509.0,509.0,509.0,509.0,494.0,494.0,494.0,494.0,494.0,494.0,494.0,494.0,494.0,494.0,494.0,494.0,494.0,522.0,522.0,522.0,522.0,522.0,522.0,522.0,513.0,513.0,513.0,513.0,513.0,513.0,513.0,513.0,513.0,513.0,513.0,513.0,513.0,525.0,525.0,525.0,525.0,525.0,525.0,525.0
0,500.0,494.0,491.0,500,500,500,12.0,28.0,34.0,509.6,510.73333333333335,517.9333333333333,512.0,522.0,525.0,512.0,512.0,509.0,509.0,509.0,509.0,509.0,509.0,509.0,509.0,509.0,509.0,509.0,509.0,509.0,509.0,509.0,500.0,500.0,500.0,494.0,494.0,522.0,522.0,522.0,522.0,522.0,522.0,522.0,522.0,522.0,522.0,522.0,522.0,522.0,522.0,521.0,521.0,521.0,521.0,513.0,513.0,525.0,525.0,525.0,525.0,525.0,525.0,525.0,525.0,525.0,525.0,525.0,525.0,525.0,525.0,491.0,491.0,491.0,491.0
0,497.0,521.0,491.0,500,500,500,12.0,8.0,34.0,502.6,523.2333333333333,507.2,509.0,529.0,525.0,509.0,500.0,500.0,500.0,500.0,500.0,500.0,500.0,500.0,500.0,500.0,500.0,497.0,497.0,497.0,497.0,497.0,497.0,497.0,497.0,522.0,521.0,521.0,521.0,521.0,521.0,521.0,521.0,521.0,521.0,521.0,521.0,529.0,529.0,529.0,529.0,529.0,529.0,529.0,529.0,525.0,491.0,491.0,491.0,491.0,491.0,491.0,491.0,491.0,491.0,491.0,491.0,507.0,507.0,507.0,507.0,507.0,507.0,507.0,507.0
0,494.0,495.0,507.0,500,500,500,9.0,34.0,20.0,497.0,518.3333333333334,513.8,503.0,529.0,527.0,497.0,497.0,497.0,497.0,497.0,497.0,497.0,494.0,494.0,494.0,494.0,494.0,494.0,494.0,503.0,503.0,503.0,503.0,503.0,503.0,529.0,529.0,529.0,529.0,529.0,529.0,529.0,506.0,506.0,506.0,506.0,506.0,506.0,506.0,495.0,495.0,495.0,495.0,495.0,495.0,507.0,507.0,507.0,507.0,507.0,507.0,507.0,527.0,527.0,527.0,527.0,527.0,527.0,527.0,518.0,518.0,518.0,518.0,518.0,518.0
0,503.0,492.0,508.0,500,500,500,17.0,3.0,10.0,506.2,493.8,514.0,511.0,495.0,518.0,503.0,503.0,503.0,503.0,503.0,503.0,503.0,511.0,511.0,511.0,511.0,511.0,511.0,511.0,511.0,511.0,511.0,511.0,511.0,511.0,495.0,495.0,495.0,495.0,495.0,495.0,492.0,492.0,492.0,492.0,492.0,492.0,492.0,492.0,492.0,492.0,492.0,492.0,492.0,492.0,518.0,518.0,518.0,518.0,518.0,518.0,508.0,508.0,508.0,508.0,508.0,508.0,508.0,508.0,508.0,508.0,508.0,508.0,508.0,508.0
0,511.0,492.0,508.0,500,500,500,19.0,3.0,12.0,511.06666666666666,493.0,513.0666666666667,522.0,493.0,520.0,511.0,511.0,511.0,511.0,511.0,511.0,511.0,511.0,511.0,511.0,511.0,511.0,522.0,522.0,522.0,522.0,522.0,522.0,522.0,522.0,492.0,492.0,492.0,492.0,492.0,492.0,492.0,492.0,492.0,492.0,492.0,492.0,493.0,493.0,493.0,493.0,493.0,493.0,493.0,493.0,508.0,508.0,508.0,508.0,508.0,508.0,508.0,508.0,508.0,508.0,508.0,508.0,520.0,520.0,520.0,520.0,520.0,520.0,520.0,520.0
0,522.0,482.0,518.0,500,500,500,15.0,11.0,19.0,522.0,488.0,520.0,526.0,493.0,527.0,522.0,522.0,522.0,522.0,526.0,526.0,526.0,526.0,526.0,526.0,526.0,526.0,525.0,525.0,525.0,525.0,525.0,525.0,525.0,525.0,493.0,493.0,493.0,493.0,482.0,482.0,482.0,482.0,482.0,482.0,482.0,482.0,486.0,486.0,486.0,486.0,486.0,486.0,486.0,486.0,520.0,520.0,520.0,520.0,527.0,527.0,527.0,527.0,527.0,527.0,527.0,527.0,518.0,518.0,518.0,518.0,518.0,518.0,518.0,518.0
0,520.0,475.0,495.0,500,500,500,5.0,11.0,23.0,522.6666666666666,480.8666666666667,507.26666666666665,525.0,486.0,518.0,525.0,525.0,525.0,525.0,525.0,525.0,520.0,520.0,520.0,520.0,520.0,520.0,520.0,520.0,520.0,520.0,520.0,520.0,520.0,520.0,486.0,486.0,486.0,486.0,486.0,486.0,475.0,475.0,475.0,475.0,475.0,475.0,475.0,475.0,475.0,475.0,475.0,475.0,475.0,475.0,518.0,518.0,518.0,518.0,518.0,518.0,495.0,495.0,495.0,495.0,495.0,495.0,495.0,495.0,495.0,495.0,495.0,495.0,495.0,495.0
0,505.0,478.0,494.0,500,500,500,15.0,32.0,10.0,513.1666666666666,489.8666666666667,498.56666666666666,519.0,507.0,504.0,519.0,519.0,519.0,519.0,519.0,519.0,505.0,505.0,505.0,505.0,505.0,505.0,505.0,505.0,505.0,505.0,505.0,505.0,505.0,505.0,478.0,478.0,478.0,478.0,478.0,478.0,507.0,507.0,507.0,507.0,507.0,507.0,507.0,507.0,507.0,507.0,507.0,507.0,507.0,507.0,494.0,494.0,494.0,494.0,494.0,494.0,504.0,504.0,504.0,504.0,504.0,504.0,504.0,504.0,504.0,504.0,504.0,504.0,504.0,504.0
0,496.0,507.0,495.0,500,500,500,9.0,61.0,9.0,500.2,540.3,499.5,505.0,568.0,504.0,505.0,505.0,502.0,502.0,502.0,496.0,496.0,496.0,496.0,496.0,496.0,496.0,496.0,496.0,496.0,496.0,496.0,496.0,496.0,496.0,507.0,507.0,535.0,535.0,535.0,568.0,568.0,568.0,568.0,568.0,568.0,568.0,568.0,568.0,568.0,568.0,568.0,568.0,568.0,568.0,504.0,504.0,504.0,504.0,504.0,495.0,495.0,495.0,495.0,495.0,495.0,495.0,495.0,495.0,495.0,495.0,495.0,495.0,495.0,495.0
0,496.0,535.0,488.0,500,500,500,10.0,33.0,25.0,499.0,559.4,497.2,506.0,568.0,513.0,496.0,496.0,496.0,496.0,496.0,496.0,496.0,506.0,506.0,506.0,506.0,506.0,501.0,501.0,501.0,501.0,501.0,501.0,501.0,501.0,568.0,568.0,568.0,568.0,568.0,568.0,568.0,558.0,558.0,558.0,558.0,558.0,535.0,535.0,535.0,535.0,535.0,535.0,535.0,535.0,495.0,495.0,495.0,495.0,495.0,495.0,495.0,488.0,488.0,488.0,488.0,488.0,513.0,513.0,513.0,513.0,513.0,513.0,513.0,513.0
0,501.0,516.0,494.0,500,500,500,5.0,42.0,25.0,501.9,533.5,506.7,503.0,535.0,513.0,501.0,501.0,501.0,501.0,501.0,501.0,501.0,501.0,501.0,501.0,501.0,503.0,503.0,503.0,503.0,503.0,503.0,503.0,503.0,503.0,535.0,535.0,535.0,535.0,535.0,535.0,535.0,535.0,535.0,535.0,535.0,516.0,516.0,516.0,516.0,516.0,516.0,516.0,516.0,516.0,513.0,513.0,513.0,513.0,513.0,513.0,513.0,513.0,513.0,513.0,513.0,494.0,494.0,494.0,494.0,494.0,494.0,494.0,494.0,494.0
0,498.0,516.0,492.0,500,500,500,5.0,19.0,21.0,502.26666666666665,517.5666666666667,494.3666666666667,503.0,523.0,494.0,503.0,503.0,503.0,503.0,503.0,503.0,503.0,503.0,503.0,503.0,503.0,503.0,503.0,503.0,503.0,503.0,498.0,498.0,498.0,498.0,516.0,516.0,516.0,516.0,516.0,516.0,516.0,516.0,516.0,516.0,516.0,516.0,516.0,516.0,516.0,516.0,523.0,523.0,523.0,523.0,494.0,494.0,494.0,494.0,494.0,494.0,494.0,494.0,494.0,494.0,494.0,494.0,494.0,494.0,494.0,494.0,492.0,492.0,492.0,492.0
0,450.0,504.0,492.0,500,500,500,53.0,19.0,8.0,492.6,519.0666666666667,493.46666666666664,498.0,523.0,500.0,498.0,498.0,498.0,498.0,498.0,498.0,498.0,498.0,498.0,498.0,498.0,498.0,498.0,498.0,498.0,450.0,450.0,450.0,450.0,450.0,523.0,523.0,523.0,523.0,523.0,523.0,523.0,523.0,523.0,523.0,523.0,523.0,523.0,523.0,523.0,504.0,504.0,504.0,504.0,504.0,492.0,492.0,492.0,492.0,492.0,492.0,492.0,492.0,492.0,492.0,492.0,492.0,492.0,492.0,492.0,500.0,500.0,500.0,500.0,500.0
0,450.0,504.0,500.0,500,500,500,33.0,12.0,13.0,464.3,509.2,505.6333333333333,483.0,516.0,513.0,450.0,450.0,450.0,450.0,450.0,450.0,483.0,483.0,483.0,483.0,483.0,483.0,483.0,483.0,483.0,483.0,483.0,483.0,483.0,483.0,504.0,504.0,504.0,504.0,504.0,504.0,516.0,516.0,516.0,516.0,516.0,516.0,516.0,516.0,516.0,516.0,516.0,516.0,516.0,516.0,500.0,500.0,500.0,500.0,500.0,500.0,513.0,513.0,513.0,513.0,513.0,513.0,513.0,513.0,513.0,513.0,513.0,513.0,513.0,513.0
0,507.0,491.0,495.0,500,500,500,41.0,25.0,18.0,506.93333333333334,501.53333333333336,508.46666666666664,524.0,502.0,511.0,507.0,507.0,507.0,507.0,524.0,524.0,524.0,524.0,524.0,524.0,524.0,524.0,524.0,524.0,524.0,524.0,524.0,524.0,524.0,524.0,502.0,502.0,502.0,502.0,491.0,491.0,491.0,491.0,491.0,491.0,491.0,491.0,491.0,491.0,491.0,491.0,491.0,491.0,491.0,491.0,495.0,495.0,495.0,495.0,511.0,511.0,511.0,511.0,511.0,511.0,511.0,511.0,511.0,511.0,511.0,511.0,511.0,511.0,511.0,511.0
0,528.0,509.0,527.0,500,500,500,12.0,48.0,22.0,531.2,518.6,527.6666666666666,536.0,539.0,533.0,536.0,536.0,536.0,536.0,536.0,536.0,536.0,536.0,528.0,528.0,528.0,528.0,528.0,528.0,528.0,528.0,528.0,528.0,528.0,528.0,509.0,509.0,509.0,509.0,509.0,509.0,509.0,509.0,539.0,539.0,539.0,539.0,539.0,539.0,539.0,539.0,539.0,539.0,539.0,539.0,533.0,533.0,533.0,533.0,533.0,533.0,533.0,533.0,527.0,527.0,527.0,527.0,527.0,527.0,527.0,527.0,527.0,527.0,527.0,527.0
0,525.0,498.0,512.0,500,500,500,5.0,41.0,15.0,527.3666666666667,523.5,519.1,530.0,539.0,527.0,528.0,528.0,530.0,530.0,530.0,530.0,530.0,530.0,530.0,525.0,525.0,525.0,525.0,525.0,525.0,525.0,525.0,525.0,525.0,525.0,539.0,539.0,537.0,537.0,537.0,537.0,537.0,537.0,537.0,498.0,498.0,498.0,498.0,498.0,498.0,498.0,498.0,498.0,498.0,498.0,527.0,527.0,512.0,512.0,512.0,512.0,512.0,512.0,512.0,515.0,515.0,515.0,515.0,515.0,515.0,515.0,515.0,515.0,515.0,515.0
0,508.0,480.0,530.0,500,500,500,5.0,28.0,19.0,509.23333333333335,498.2,532.0666666666667,513.0,501.0,531.0,508.0,508.0,508.0,508.0,508.0,508.0,508.0,508.0,508.0,508.0,508.0,508.0,513.0,513.0,513.0,513.0,513.0,513.0,513.0,513.0,501.0,501.0,501.0,501.0,501.0,501.0,501.0,501.0,501.0,501.0,501.0,501.0,480.0,480.0,480.0,480.0,480.0,480.0,480.0,480.0,530.0,530.0,530.0,530.0,530.0,530.0,530.0,530.0,530.0,530.0,530.0,530.0,531.0,531.0,531.0,531.0,531.0,531.0,531.0,531.0
0,508.0,480.0,506.0,500,500,500,19.0,1.0,25.0,513.3666666666667,480.43333333333334,527.0666666666667,527.0,481.0,531.0,513.0,513.0,513.0,513.0,513.0,513.0,513.0,527.0,527.0,527.0,508.0,508.0,508.0,508.0,508.0,508.0,508.0,508.0,508.0,508.0,480.0,480.0,480.0,480.0,480.0,480.0,480.0,481.0,481.0,481.0,481.0,481.0,481.0,481.0,481.0,481.0,481.0,481.0,481.0,481.0,531.0,531.0,531.0,531.0,531.0,531.0,531.0,506.0,506.0,506.0,529.0,529.0,529.0,529.0,529.0,529.0,529.0,529.0,529.0,529.0
0,500.0,481.0,509.0,500,500,500,8.0,1.0,20.0,506.1333333333333,481.23333333333335,524.3333333333334,508.0,482.0,529.0,508.0,508.0,508.0,508.0,508.0,508.0,508.0,508.0,508.0,508.0,508.0,508.0,500.0,500.0,500.0,500.0,500.0,500.0,500.0,500.0,481.0,481.0,481.0,481.0,481.0,481.0,481.0,481.0,481.0,481.0,481.0,481.0,482.0,482.0,482.0,482.0,482.0,482.0,482.0,482.0,529.0,529.0,529.0,529.0,529.0,529.0,529.0,529.0,529.0,529.0,529.0,529.0,509.0,509.0,509.0,509.0,509.0,509.0,509.0,509.0
0,487.0,480.0,491.0,500,500,500,13.0,2.0,18.0,496.1,481.4,503.6,500.0,482.0,509.0,500.0,500.0,500.0,500.0,500.0,500.0,500.0,500.0,500.0,500.0,500.0,487.0,487.0,487.0,487.0,487.0,487.0,487.0,487.0,487.0,482.0,482.0,482.0,482.0,482.0,482.0,482.0,482.0,482.0,482.0,482.0,480.0,480.0,480.0,480.0,480.0,480.0,480.0,480.0,480.0,509.0,509.0,509.0,509.0,509.0,509.0,509.0,509.0,509.0,509.0,509.0,491.0,491.0,491.0,491.0,491.0,491.0,491.0,491.0,491.0
0,487.0,480.0,491.0,500,500,500,13.0,21.0,18.0,488.43333333333334,487.06666666666666,492.93333333333334,490.0,501.0,495.0,487.0,487.0,487.0,487.0,487.0,487.0,487.0,487.0,487.0,487.0,490.0,490.0,490.0,490.0,490.0,490.0,490.0,490.0,490.0,490.0,480.0,480.0,480.0,480.0,480.0,480.0,480.0,480.0,480.0,480.0,501.0,501.0,501.0,501.0,501.0,501.0,501.0,501.0,501.0,501.0,491.0,491.0,491.0,491.0,491.0,491.0,491.0,491.0,491.0,491.0,495.0,495.0,495.0,495.0,495.0,495.0,495.0,495.0,495.0,495.0
0,490.0,501.0,495.0,500,500,500,16.0,69.0,20.0,491.9,506.6,497.76666666666665,503.0,549.0,511.0,490.0,490.0,490.0,490.0,490.0,490.0,490.0,490.0,490.0,490.0,490.0,495.0,495.0,495.0,495.0,495.0,495.0,503.0,503.0,503.0,501.0,501.0,501.0,501.0,501.0,501.0,501.0,501.0,501.0,501.0,501.0,519.0,519.0,519.0,519.0,519.0,519.0,549.0,549.0,549.0,495.0,495.0,495.0,495.0,495.0,495.0,495.0,495.0,495.0,495.0,495.0,511.0,511.0,511.0,511.0,511.0,511.0,496.0,496.0,496.0
0,503.0,549.0,496.0,500,500,500,20.0,37.0,15.0,504.8666666666667,545.8666666666667,501.1666666666667,515.0,556.0,506.0,503.0,503.0,503.0,503.0,503.0,503.0,503.0,503.0,503.0,503.0,503.0,503.0,515.0,515.0,515.0,515.0,515.0,515.0,515.0,515.0,549.0,549.0,549.0,549.0,549.0,549.0,549.0,549.0,549.0,549.0,549.0,549.0,556.0,556.0,556.0,556.0,556.0,556.0,556.0,556.0,496.0,496.0,496.0,496.0,496.0,496.0,496.0,496.0,496.0,496.0,496.0,496.0,506.0,506.0,506.0,506.0,506.0,506.0,506.0,506.0
0,503.0,532.0,503.0,500,500,500,12.0,24.0,10.0,510.46666666666664,550.2333333333333,501.93333333333334,515.0,556.0,506.0,515.0,515.0,515.0,515.0,515.0,515.0,515.0,515.0,515.0,515.0,515.0,515.0,515.0,514.0,514.0,514.0,514.0,514.0,514.0,514.0,556.0,556.0,556.0,556.0,556.0,556.0,556.0,556.0,556.0,556.0,556.0,556.0,556.0,532.0,532.0,532.0,532.0,532.0,532.0,532.0,506.0,506.0,506.0,506.0,506.0,506.0,506.0,506.0,506.0,506.0,506.0,506.0,506.0,503.0,503.0,503.0,503.0,503.0,503.0,503.0
0,514.0,517.0,491.0,500,500,500,1.0,39.0,15.0,514.2666666666667,536.4,502.2,514.0,532.0,503.0,514.0,514.0,514.0,514.0,514.0,514.0,514.0,514.0,514.0,514.0,514.0,514.0,514.0,514.0,514.0,514.0,514.0,514.0,514.0,514.0,532.0,532.0,532.0,532.0,532.0,532.0,532.0,532.0,532.0,532.0,532.0,532.0,532.0,532.0,532.0,517.0,517.0,517.0,517.0,517.0,503.0,503.0,503.0,503.0,503.0,503.0,503.0,503.0,503.0,503.0,503.0,503.0,503.0,503.0,503.0,491.0,491.0,491.0,491.0,491.0
0,512.0,517.0,491.0,500,500,500,2.0,15.0,21.0,513.6,523.0,499.2,514.0,522.0,512.0,514.0,514.0,514.0,514.0,514.0,514.0,514.0,514.0,514.0,514.0,514.0,512.0,512.0,512.0,512.0,512.0,512.0,512.0,512.0,512.0,517.0,517.0,517.0,517.0,517.0,517.0,517.0,517.0,517.0,517.0,517.0,522.0,522.0,522.0,522.0,522.0,522.0,522.0,522.0,522.0,491.0,491.0,491.0,491.0,491.0,491.0,491.0,491.0,491.0,491.0,491.0,512.0,512.0,512.0,512.0,512.0,512.0,512.0,512.0,512.0
0,509.0,502.0,506.0,500,500,500,5.0,20.0,21.0,511.8,517.0,506.6,512.0,522.0,512.0,512.0,512.0,512.0,512.0,512.0,512.0,512.0,512.0,512.0,512.0,512.0,509.0,509.0,509.0,509.0,509.0,509.0,509.0,509.0,509.0,522.0,522.0,522.0,522.0,522.0,522.0,522.0,522.0,522.0,522.0,522.0,502.0,502.0,502.0,502.0,502.0,502.0,502.0,502.0,502.0,512.0,512.0,512.0,512.0,512.0,512.0,512.0,512.0,512.0,512.0,512.0,506.0,506.0,506.0,506.0,506.0,506.0,506.0,506.0,506.0
0,509.0,491.0,506.0,500,500,500,5.0,11.0,0.0,511.5,496.5,506.0,514.0,502.0,506.0,509.0,509.0,509.0,509.0,509.0,514.0,514.0,514.0,514.0,514.0,514.0,514.0,514.0,514.0,514.0,514.0,514.0,514.0,514.0,514.0,502.0,502.0,502.0,502.0,502.0,491.0,491.0,491.0,491.0,491.0,491.0,491.0,491.0,491.0,491.0,491.0,491.0,491.0,491.0,491.0,506.0,506.0,506.0,506.0,506.0,506.0,506.0,506.0,506.0,506.0,506.0,506.0,506.0,506.0,506.0,506.0,506.0,506.0,506.0,506.0
0,514.0,491.0,499.0,500,500,500,10.0,10.0,7.0,517.0666666666667,494.3333333333333,503.6,524.0,501.0,506.0,514.0,514.0,514.0,514.0,514.0,514.0,514.0,514.0,521.0,521.0,521.0,521.0,521.0,524.0,524.0,524.0,524.0,524.0,524.0,524.0,491.0,491.0,491.0,491.0,491.0,491.0,491.0,491.0,501.0,501.0,501.0,501.0,501.0,499.0,499.0,499.0,499.0,499.0,499.0,499.0,506.0,506.0,506.0,506.0,506.0,506.0,506.0,506.0,499.0,499.0,499.0,499.0,499.0,500.0,500.0,500.0,500.0,500.0,500.0,500.0
0,524.0,499.0,500.0,500,500,500,1.0,25.0,13.0,524.4,509.0,505.2,525.0,524.0,513.0,524.0,524.0,524.0,524.0,524.0,524.0,524.0,524.0,525.0,525.0,525.0,525.0,525.0,525.0,525.0,525.0,525.0,525.0,525.0,525.0,499.0,499.0,499.0,499.0,499.0,499.0,499.0,499.0,524.0,524.0,524.0,524.0,524.0,524.0,524.0,524.0,524.0,524.0,524.0,524.0,500.0,500.0,500.0,500.0,500.0,500.0,500.0,500.0,513.0,513.0,513.0,513.0,513.0,513.0,513.0,513.0,513.0,513.0,513.0,513.0
0,505.0,524.0,507.0,500,500,500,20.0,40.0,13.0,521.3333333333334,523.1333333333333,509.4,525.0,539.0,513.0,525.0,525.0,525.0,525.0,525.0,525.0,525.0,519.0,519.0,519.0,519.0,519.0,519.0,519.0,519.0,519.0,519.0,519.0,505.0,505.0,524.0,524.0,524.0,524.0,524.0,524.0,524.0,528.0,528.0,528.0,528.0,528.0,528.0,528.0,528.0,528.0,528.0,528.0,539.0,539.0,513.0,513.0,513.0,513.0,513.0,513.0,513.0,509.0,509.0,509.0,509.0,509.0,509.0,509.0,509.0,509.0,509.0,509.0,507.0,507.0
0,505.0,510.0,507.0,500,500,500,20.0,29.0,8.0,512.4333333333333,527.7,509.8,519.0,539.0,515.0,519.0,519.0,505.0,505.0,505.0,505.0,505.0,505.0,505.0,505.0,505.0,505.0,505.0,512.0,512.0,512.0,512.0,512.0,512.0,512.0,528.0,528.0,539.0,539.0,539.0,539.0,539.0,539.0,539.0,539.0,539.0,539.0,539.0,510.0,510.0,510.0,510.0,510.0,510.0,510.0,509.0,509.0,507.0,507.0,507.0,507.0,507.0,507.0,507.0,507.0,507.0,507.0,507.0,515.0,515.0,515.0,515.0,515.0,515.0,515.0
0,501.0,506.0,510.0,500,500,500,11.0,4.0,5.0,505.4,507.6,511.8333333333333,501.0,506.0,510.0,501.0,501.0,501.0,501.0,501.0,501.0,501.0,501.0,501.0,501.0,501.0,501.0,501.0,501.0,501.0,501.0,501.0,501.0,501.0,501.0,506.0,506.0,506.0,506.0,506.0,506.0,506.0,506.0,506.0,506.0,506.0,506.0,506.0,506.0,506.0,506.0,506.0,506.0,506.0,506.0,510.0,510.0,510.0,510.0,510.0,510.0,510.0,510.0,510.0,510.0,510.0,510.0,510.0,510.0,510.0,510.0,510.0,510.0,510.0,510.0
0,501.0,497.0,501.0,500,500,500,8.0,14.0,26.0,504.0,503.03333333333336,507.8333333333333,509.0,511.0,527.0,501.0,501.0,501.0,501.0,501.0,501.0,501.0,509.0,509.0,509.0,509.0,509.0,509.0,509.0,509.0,509.0,509.0,509.0,502.0,502.0,506.0,506.0,506.0,506.0,506.0,506.0,506.0,497.0,497.0,497.0,497.0,497.0,497.0,497.0,497.0,497.0,497.0,497.0,511.0,511.0,510.0,510.0,510.0,510.0,510.0,510.0,510.0,501.0,501.0,501.0,501.0,501.0,501.0,501.0,501.0,501.0,501.0,501.0,527.0,527.0
0,502.0,489.0,515.0,500,500,500,10.0,22.0,26.0,507.5,499.1333333333333,517.4666666666667,512.0,511.0,527.0,502.0,502.0,502.0,502.0,502.0,502.0,512.0,512.0,512.0,512.0,512.0,512.0,512.0,512.0,512.0,512.0,512.0,512.0,512.0,512.0,511.0,511.0,511.0,511.0,511.0,511.0,489.0,489.0,489.0,489.0,489.0,489.0,489.0,489.0,489.0,489.0,489.0,489.0,489.0,489.0,527.0,527.0,527.0,527.0,527.0,527.0,515.0,515.0,515.0,515.0,515.0,515.0,515.0,515.0,515.0,515.0,515.0,515.0,515.0,515.0
0,507.0,485.0,495.0,500,500,500,5.0,16.0,20.0,508.8333333333333,493.93333333333334,507.0,507.0,501.0,505.0,507.0,507.0,507.0,507.0,507.0,507.0,507.0,507.0,507.0,507.0,507.0,507.0,507.0,507.0,507.0,507.0,507.0,507.0,507.0,507.0,501.0,501.0,501.0,501.0,501.0,501.0,501.0,501.0,501.0,501.0,501.0,485.0,485.0,485.0,485.0,485.0,485.0,485.0,485.0,485.0,505.0,505.0,505.0,505.0,505.0,505.0,505.0,505.0,505.0,505.0,505.0,495.0,495.0,495.0,495.0,495.0,495.0,495.0,495.0,495.0
0,498.0,485.0,495.0,500,500,500,9.0,3.0,14.0,505.2,485.6,497.8,507.0,488.0,509.0,507.0,507.0,507.0,507.0,507.0,507.0,507.0,507.0,507.0,507.0,507.0,507.0,507.0,507.0,498.0,498.0,498.0,498.0,498.0,498.0,485.0,485.0,485.0,485.0,485.0,485.0,485.0,485.0,485.0,485.0,485.0,485.0,485.0,485.0,488.0,488.0,488.0,488.0,488.0,488.0,495.0,495.0,495.0,495.0,495.0,495.0,495.0,495.0,495.0,495.0,495.0,495.0,495.0,495.0,509.0,509.0,509.0,509.0,509.0,509.0
0,498.0,485.0,495.0,500,500,500,9.0,8.0,14.0,502.0,487.4,503.26666666666665,507.0,493.0,509.0,507.0,498.0,498.0,498.0,498.0,498.0,498.0,498.0,498.0,498.0,498.0,498.0,498.0,498.0,505.0,505.0,505.0,505.0,505.0,505.0,485.0,488.0,488.0,488.0,488.0,488.0,488.0,488.0,488.0,488.0,488.0,488.0,488.0,488.0,493.0,493.0,493.0,493.0,493.0,493.0,495.0,509.0,509.0,509.0,509.0,509.0,509.0,509.0,509.0,509.0,509.0,509.0,509.0,509.0,503.0,503.0,503.0,503.0,503.0,503.0
0,502.0,493.0,502.0,500,500,500,7.0,35.0,7.0,502.96666666666664,495.8333333333333,504.26666666666665,505.0,523.0,503.0,505.0,505.0,505.0,505.0,505.0,505.0,505.0,505.0,505.0,505.0,505.0,505.0,505.0,505.0,505.0,502.0,502.0,502.0,502.0,502.0,493.0,493.0,493.0,493.0,493.0,493.0,493.0,493.0,493.0,493.0,493.0,493.0,493.0,493.0,493.0,523.0,523.0,523.0,523.0,523.0,503.0,503.0,503.0,503.0,503.0,503.0,503.0,503.0,503.0,503.0,503.0,503.0,503.0,503.0,503.0,502.0,502.0,502.0,502.0,502.0
0,502.0,523.0,502.0,500,500,500,12.0,55.0,4.0,507.0,531.0,503.6666666666667,514.0,548.0,506.0,502.0,502.0,502.0,502.0,502.0,502.0,514.0,514.0,514.0,514.0,514.0,514.0,514.0,514.0,514.0,514.0,514.0,514.0,514.0,514.0,523.0,523.0,523.0,523.0,523.0,523.0,548.0,548.0,548.0,548.0,548.0,548.0,548.0,548.0,548.0,548.0,548.0,548.0,548.0,548.0,502.0,502.0,502.0,502.0,502.0,502.0,506.0,506.0,506.0,506.0,506.0,506.0,506.0,506.0,506.0,506.0,506.0,506.0,506.0,506.0
0,510.0,534.0,499.0,500,500,500,12.0,30.0,7.0,512.9333333333333,545.2,504.3,514.0,553.0,506.0,514.0,514.0,514.0,514.0,514.0,514.0,514.0,514.0,514.0,510.0,510.0,510.0,510.0,510.0,514.0,514.0,514.0,514.0,514.0,514.0,548.0,548.0,548.0,548.0,548.0,548.0,548.0,548.0,548.0,553.0,553.0,553.0,553.0,553.0,534.0,534.0,534.0,534.0,534.0,534.0,506.0,506.0,506.0,506.0,506.0,506.0,506.0,506.0,506.0,505.0,505.0,505.0,505.0,505.0,499.0,499.0,499.0,499.0,499.0,499.0
0,514.0,512.0,499.0,500,500,500,5.0,41.0,7.0,513.5,533.9666666666667,500.4,515.0,534.0,500.0,514.0,514.0,514.0,514.0,514.0,514.0,514.0,514.0,514.0,514.0,514.0,514.0,514.0,514.0,515.0,515.0,515.0,515.0,515.0,515.0,534.0,534.0,534.0,534.0,534.0,534.0,534.0,534.0,534.0,534.0,534.0,534.0,534.0,534.0,512.0,512.0,512.0,512.0,512.0,512.0,499.0,499.0,499.0,499.0,499.0,499.0,499.0,499.0,499.0,499.0,499.0,499.0,499.0,499.0,500.0,500.0,500.0,500.0,500.0,500.0
0,505.0,503.0,494.0,500,500,500,10.0,31.0,6.0,514.1,516.5333333333333,499.3666666666667,515.0,512.0,500.0,515.0,515.0,515.0,515.0,515.0,515.0,515.0,515.0,515.0,515.0,515.0,515.0,515.0,515.0,515.0,515.0,505.0,505.0,505.0,505.0,512.0,512.0,512.0,512.0,512.0,512.0,512.0,512.0,512.0,512.0,512.0,512.0,512.0,512.0,512.0,512.0,503.0,503.0,503.0,503.0,500.0,500.0,500.0,500.0,500.0,500.0,500.0,500.0,500.0,500.0,500.0,500.0,500.0,500.0,500.0,500.0,494.0,494.0,494.0,494.0
0,502.0,501.0,494.0,500,500,500,13.0,11.0,14.0,506.0,504.1333333333333,499.8666666666667,505.0,503.0,508.0,505.0,505.0,505.0,505.0,505.0,505.0,505.0,505.0,505.0,502.0,502.0,502.0,502.0,502.0,502.0,502.0,502.0,502.0,502.0,502.0,503.0,503.0,503.0,503.0,503.0,503.0,503.0,503.0,503.0,501.0,501.0,501.0,501.0,501.0,501.0,501.0,501.0,501.0,501.0,501.0,494.0,494.0,494.0,494.0,494.0,494.0,494.0,494.0,494.0,508.0,508.0,508.0,508.0,508.0,508.0,508.0,508.0,508.0,508.0,508.0
0,502.0,492.0,501.0,500,500,500,6.0,9.0,7.0,504.4,496.73333333333335,504.8,508.0,501.0,508.0,502.0,502.0,502.0,508.0,508.0,508.0,506.0,506.0,506.0,506.0,506.0,506.0,506.0,506.0,506.0,506.0,506.0,506.0,506.0,506.0,501.0,501.0,501.0,496.0,496.0,496.0,492.0,492.0,492.0,492.0,492.0,492.0,492.0,492.0,492.0,492.0,492.0,492.0,492.0,492.0,508.0,508.0,508.0,505.0,505.0,505.0,501.0,501.0,501.0,501.0,501.0,501.0,501.0,501.0,501.0,501.0,501.0,501.0,501.0,501.0
0,506.0,492.0,501.0,500,500,500,6.0,20.0,16.0,508.6,500.6666666666667,507.93333333333334,512.0,512.0,517.0,506.0,506.0,506.0,506.0,506.0,506.0,506.0,512.0,512.0,512.0,512.0,512.0,512.0,512.0,512.0,512.0,512.0,512.0,512.0,512.0,492.0,492.0,492.0,492.0,492.0,492.0,492.0,512.0,512.0,512.0,512.0,512.0,512.0,512.0,512.0,512.0,512.0,512.0,512.0,512.0,501.0,501.0,501.0,501.0,501.0,501.0,501.0,517.0,517.0,517.0,517.0,517.0,517.0,517.0,517.0,517.0,517.0,517.0,517.0,517.0
0,505.0,488.0,510.0,500,500,500,7.0,29.0,8.0,509.1,505.8,515.9,512.0,517.0,518.0,512.0,512.0,512.0,512.0,512.0,505.0,505.0,505.0,505.0,505.0,505.0,505.0,505.0,505.0,508.0,508.0,508.0,508.0,508.0,508.0,512.0,512.0,512.0,512.0,512.0,488.0,488.0,488.0,488.0,488.0,488.0,488.0,488.0,488.0,517.0,517.0,517.0,517.0,517.0,517.0,517.0,517.0,517.0,517.0,517.0,518.0,518.0,518.0,518.0,518.0,518.0,518.0,518.0,518.0,510.0,510.0,510.0,510.0,510.0,510.0
0,499.0,523.0,500.0,500,500,500,9.0,34.0,10.0,506.43333333333334,521.9333333333333,509.6666666666667,506.0,551.0,510.0,506.0,506.0,506.0,506.0,506.0,506.0,506.0,506.0,506.0,506.0,506.0,506.0,506.0,506.0,506.0,506.0,506.0,506.0,499.0,499.0,523.0,523.0,523.0,523.0,523.0,523.0,523.0,523.0,523.0,523.0,523.0,523.0,523.0,523.0,523.0,523.0,523.0,523.0,551.0,551.0,510.0,510.0,510.0,510.0,510.0,510.0,510.0,510.0,510.0,510.0,510.0,510.0,510.0,510.0,510.0,510.0,510.0,510.0,500.0,500.0
0,499.0,502.0,500.0,500,500,500,5.0,49.0,21.0,501.8333333333333,523.2333333333333,511.9,504.0,551.0,521.0,499.0,499.0,504.0,504.0,504.0,504.0,504.0,504.0,504.0,504.0,504.0,504.0,504.0,504.0,504.0,504.0,504.0,504.0,504.0,504.0,551.0,551.0,502.0,502.0,502.0,502.0,502.0,502.0,502.0,502.0,502.0,502.0,502.0,502.0,502.0,502.0,502.0,502.0,502.0,502.0,500.0,500.0,521.0,521.0,521.0,521.0,521.0,521.0,521.0,521.0,521.0,521.0,521.0,521.0,521.0,521.0,521.0,521.0,521.0,521.0
0,519.0,495.0,506.0,500,500,500,18.0,7.0,15.0,519.8,497.06666666666666,511.2,522.0,496.0,521.0,522.0,522.0,522.0,522.0,522.0,522.0,522.0,522.0,522.0,522.0,522.0,522.0,522.0,522.0,522.0,522.0,522.0,519.0,519.0,519.0,496.0,496.0,496.0,496.0,496.0,496.0,496.0,496.0,496.0,496.0,496.0,496.0,496.0,496.0,496.0,496.0,496.0,495.0,495.0,495.0,506.0,506.0,506.0,506.0,506.0,506.0,506.0,506.0,506.0,506.0,506.0,506.0,506.0,506.0,506.0,506.0,506.0,521.0,521.0,521.0
0,516.0,486.0,506.0,500,500,500,6.0,10.0,15.0,519.9,494.5,514.2,522.0,496.0,521.0,522.0,522.0,519.0,519.0,519.0,519.0,519.0,519.0,519.0,519.0,519.0,519.0,519.0,519.0,519.0,519.0,519.0,516.0,516.0,516.0,496.0,496.0,495.0,495.0,495.0,495.0,495.0,495.0,495.0,495.0,495.0,495.0,495.0,495.0,495.0,495.0,495.0,486.0,486.0,486.0,506.0,506.0,521.0,521.0,521.0,521.0,521.0,521.0,521.0,521.0,521.0,521.0,521.0,521.0,521.0,521.0,521.0,513.0,513.0,513.0
0,513.0,479.0,495.0,500,500,500,6.0,16.0,26.0,515.9,486.23333333333335,510.06666666666666,516.0,486.0,513.0,516.0,516.0,516.0,516.0,516.0,516.0,516.0,516.0,516.0,516.0,516.0,513.0,513.0,513.0,513.0,513.0,513.0,513.0,513.0,513.0,486.0,486.0,486.0,486.0,486.0,486.0,486.0,486.0,486.0,486.0,486.0,479.0,479.0,479.0,479.0,479.0,479.0,479.0,479.0,479.0,513.0,513.0,513.0,513.0,513.0,513.0,513.0,513.0,513.0,513.0,513.0,495.0,495.0,495.0,495.0,495.0,495.0,495.0,495.0,495.0
0,511.0,479.0,495.0,500,500,500,5.0,14.0,18.0,512.5,483.43333333333334,498.6,513.0,493.0,505.0,513.0,513.0,513.0,513.0,513.0,513.0,513.0,513.0,513.0,513.0,511.0,511.0,511.0,511.0,511.0,511.0,511.0,511.0,511.0,511.0,479.0,479.0,479.0,479.0,479.0,479.0,479.0,479.0,479.0,479.0,493.0,493.0,493.0,493.0,493.0,493.0,493.0,493.0,493.0,493.0,495.0,495.0,495.0,495.0,495.0,495.0,495.0,495.0,495.0,495.0,505.0,505.0,505.0,505.0,505.0,505.0,505.0,505.0,505.0,505.0
0,508.0,493.0,505.0,500,500,500,5.0,20.0,17.0,510.6666666666667,493.0,505.6333333333333,511.0,499.0,512.0,511.0,511.0,511.0,511.0,511.0,511.0,511.0,511.0,511.0,511.0,511.0,511.0,511.0,508.0,508.0,508.0,508.0,508.0,508.0,508.0,493.0,493.0,493.0,493.0,493.0,493.0,493.0,493.0,493.0,493.0,493.0,493.0,493.0,499.0,499.0,499.0,499.0,499.0,499.0,499.0,505.0,505.0,505.0,505.0,505.0,505.0,505.0,505.0,505.0,505.0,505.0,505.0,505.0,512.0,512.0,512.0,512.0,512.0,512.0,512.0
0,496.0,499.0,512.0,500,500,500,15.0,7.0,12.0,507.3,497.3333333333333,510.56666666666666,508.0,500.0,517.0,508.0,508.0,508.0,508.0,508.0,508.0,508.0,508.0,508.0,508.0,508.0,508.0,508.0,496.0,496.0,496.0,496.0,496.0,496.0,496.0,499.0,499.0,499.0,499.0,499.0,499.0,499.0,499.0,499.0,499.0,499.0,499.0,499.0,500.0,500.0,500.0,500.0,500.0,500.0,500.0,512.0,512.0,512.0,512.0,512.0,512.0,512.0,512.0,512.0,512.0,512.0,512.0,512.0,517.0,517.0,517.0,517.0,517.0,517.0,517.0
0,486.0,500.0,510.0,500,500,500,22.0,44.0,7.0,496.3333333333333,507.0,515.0,496.0,543.0,517.0,496.0,496.0,496.0,496.0,496.0,496.0,496.0,496.0,496.0,496.0,496.0,486.0,486.0,486.0,486.0,486.0,486.0,486.0,486.0,486.0,500.0,500.0,500.0,500.0,500.0,500.0,500.0,500.0,500.0,500.0,500.0,543.0,543.0,543.0,543.0,543.0,543.0,543.0,543.0,543.0,517.0,517.0,517.0,517.0,517.0,517.0,517.0,517.0,517.0,517.0,517.0,510.0,510.0,510.0,510.0,510.0,510.0,510.0,510.0,510.0
0,486.0,543.0,502.0,500,500,500,6.0,14.0,8.0,488.4,548.6,506.8,492.0,557.0,510.0,486.0,486.0,486.0,486.0,486.0,486.0,486.0,486.0,492.0,492.0,492.0,492.0,492.0,492.0,492.0,492.0,492.0,492.0,492.0,492.0,543.0,543.0,543.0,543.0,543.0,543.0,543.0,543.0,557.0,557.0,557.0,557.0,557.0,557.0,557.0,557.0,557.0,557.0,557.0,557.0,510.0,510.0,510.0,510.0,510.0,510.0,510.0,510.0,502.0,502.0,502.0,502.0,502.0,502.0,502.0,502.0,502.0,502.0,502.0,502.0
0,492.0,525.0,502.0,500,500,500,4.0,32.0,14.0,494.4,542.6,507.6,496.0,557.0,516.0,492.0,492.0,496.0,496.0,496.0,496.0,496.0,496.0,496.0,496.0,496.0,496.0,496.0,496.0,496.0,496.0,496.0,496.0,496.0,496.0,557.0,557.0,549.0,549.0,549.0,549.0,549.0,549.0,525.0,525.0,525.0,525.0,525.0,525.0,525.0,525.0,525.0,525.0,525.0,525.0,502.0,502.0,502.0,502.0,502.0,502.0,502.0,502.0,516.0,516.0,516.0,516.0,516.0,516.0,516.0,516.0,516.0,516.0,516.0,516.0
0,491.0,496.0,479.0,500,500,500,10.0,29.0,37.0,495.1666666666667,506.06666666666666,490.3333333333333,501.0,507.0,488.0,491.0,491.0,491.0,491.0,491.0,491.0,491.0,491.0,491.0,491.0,501.0,501.0,501.0,501.0,501.0,501.0,501.0,501.0,501.0,501.0,496.0,496.0,496.0,496.0,496.0,496.0,496.0,496.0,496.0,496.0,507.0,507.0,507.0,507.0,507.0,507.0,507.0,507.0,507.0,507.0,479.0,479.0,479.0,479.0,479.0,479.0,479.0,479.0,479.0,479.0,488.0,488.0,488.0,488.0,488.0,488.0,488.0,488.0,488.0,488.0
0,501.0,499.0,483.0,500,500,500,10.0,8.0,5.0,504.0,504.6,486.5,511.0,507.0,488.0,501.0,501.0,501.0,501.0,501.0,501.0,501.0,501.0,501.0,501.0,501.0,511.0,511.0,511.0,511.0,511.0,511.0,511.0,511.0,511.0,507.0,507.0,507.0,507.0,507.0,507.0,507.0,507.0,507.0,507.0,507.0,499.0,499.0,499.0,499.0,499.0,499.0,499.0,499.0,499.0,488.0,488.0,488.0,488.0,488.0,488.0,488.0,488.0,488.0,488.0,488.0,483.0,483.0,483.0,483.0,483.0,483.0,483.0,483.0,483.0
0,511.0,499.0,483.0,500,500,500,16.0,8.0,5.0,510.73333333333335,501.73333333333335,484.3,517.0,505.0,485.0,511.0,511.0,511.0,511.0,511.0,511.0,511.0,511.0,511.0,511.0,511.0,511.0,517.0,517.0,517.0,517.0,517.0,517.0,517.0,517.0,499.0,499.0,499.0,499.0,499.0,499.0,499.0,499.0,499.0,499.0,499.0,499.0,505.0,505.0,505.0,505.0,505.0,505.0,505.0,505.0,483.0,483.0,483.0,483.0,483.0,483.0,483.0,483.0,483.0,483.0,483.0,483.0,485.0,485.0,485.0,485.0,485.0,485.0,485.0,485.0
0,512.0,504.0,482.0,500,500,500,5.0,7.0,13.0,515.1333333333333,507.26666666666665,488.6,517.0,511.0,495.0,517.0,517.0,517.0,512.0,512.0,512.0,512.0,514.0,514.0,514.0,514.0,514.0,514.0,514.0,514.0,514.0,514.0,514.0,514.0,514.0,505.0,505.0,505.0,504.0,504.0,504.0,504.0,511.0,511.0,511.0,511.0,511.0,511.0,511.0,511.0,511.0,511.0,511.0,511.0,511.0,485.0,485.0,485.0,482.0,482.0,482.0,482.0,495.0,495.0,495.0,495.0,495.0,495.0,495.0,495.0,495.0,495.0,495.0,495.0,495.0
0,515.0,516.0,516.0,500,500,500,1.0,18.0,29.0,514.6666666666666,519.1,511.4,515.0,529.0,524.0,515.0,515.0,515.0,515.0,515.0,515.0,515.0,515.0,515.0,515.0,515.0,515.0,515.0,515.0,515.0,515.0,515.0,515.0,515.0,515.0,516.0,516.0,516.0,516.0,516.0,516.0,516.0,516.0,516.0,529.0,529.0,529.0,529.0,529.0,529.0,529.0,529.0,529.0,529.0,529.0,524.0,524.0,524.0,524.0,524.0,524.0,524.0,524.0,524.0,516.0,516.0,516.0,516.0,516.0,516.0,516.0,516.0,516.0,516.0,516.0
0,505.0,519.0,516.0,500,500,500,10.0,10.0,10.0,512.0,525.8333333333334,518.5,515.0,529.0,526.0,515.0,515.0,515.0,515.0,515.0,515.0,515.0,515.0,515.0,509.0,509.0,509.0,509.0,509.0,505.0,505.0,505.0,505.0,505.0,505.0,529.0,529.0,529.0,529.0,529.0,529.0,529.0,529.0,529.0,522.0,522.0,522.0,522.0,522.0,519.0,519.0,519.0,519.0,519.0,519.0,516.0,516.0,516.0,516.0,516.0,516.0,516.0,516.0,516.0,519.0,519.0,519.0,519.0,519.0,526.0,526.0,526.0,526.0,526.0,526.0
0,505.0,519.0,517.0,500,500,500,8.0,3.0,9.0,506.8666666666667,519.9,523.5666666666667,513.0,522.0,526.0,505.0,505.0,505.0,505.0,505.0,505.0,505.0,505.0,505.0,505.0,505.0,505.0,505.0,505.0,505.0,513.0,513.0,513.0,513.0,513.0,519.0,519.0,519.0,519.0,519.0,519.0,519.0,519.0,519.0,519.0,519.0,519.0,519.0,519.0,519.0,522.0,522.0,522.0,522.0,522.0,526.0,526.0,526.0,526.0,526.0,526.0,526.0,526.0,526.0,526.0,526.0,526.0,526.0,526.0,526.0,517.0,517.0,517.0,517.0,517.0
0,513.0,485.0,510.0,500,500,500,8.0,37.0,16.0,511.6666666666667,509.1666666666667,516.1666666666666,513.0,522.0,517.0,513.0,513.0,513.0,513.0,513.0,513.0,513.0,513.0,513.0,513.0,513.0,513.0,513.0,513.0,513.0,513.0,513.0,513.0,513.0,513.0,522.0,522.0,522.0,522.0,522.0,522.0,522.0,522.0,522.0,485.0,485.0,485.0,485.0,485.0,485.0,485.0,485.0,485.0,485.0,485.0,517.0,517.0,517.0,517.0,517.0,517.0,517.0,517.0,517.0,510.0,510.0,510.0,510.0,510.0,510.0,510.0,510.0,510.0,510.0,510.0
0,507.0,477.0,498.0,500,500,500,6.0,45.0,19.0,511.8,487.1,508.3,513.0,485.0,510.0,513.0,513.0,513.0,513.0,513.0,513.0,513.0,513.0,513.0,513.0,513.0,513.0,513.0,513.0,507.0,507.0,507.0,507.0,507.0,507.0,485.0,485.0,485.0,485.0,485.0,485.0,485.0,485.0,485.0,485.0,485.0,485.0,485.0,485.0,477.0,477.0,477.0,477.0,477.0,477.0,510.0,510.0,510.0,510.0,510.0,510.0,510.0,510.0,510.0,510.0,510.0,510.0,510.0,510.0,498.0,498.0,498.0,498.0,498.0,498.0
0,497.0,477.0,498.0,500,500,500,16.0,10.0,19.0,504.93333333333334,480.46666666666664,504.26666666666665,507.0,487.0,517.0,507.0,507.0,507.0,507.0,507.0,507.0,507.0,507.0,507.0,507.0,497.0,497.0,497.0,497.0,497.0,497.0,497.0,497.0,497.0,497.0,477.0,477.0,477.0,477.0,477.0,477.0,477.0,477.0,477.0,477.0,487.0,487.0,487.0,487.0,487.0,487.0,487.0,487.0,487.0,487.0,498.0,498.0,498.0,498.0,498.0,498.0,498.0,498.0,498.0,498.0,517.0,517.0,517.0,517.0,517.0,517.0,517.0,517.0,517.0,517.0
0,495.0,478.0,510.0,500,500,500,12.0,10.0,19.0,497.73333333333335,482.96666666666664,512.3666666666667,497.0,487.0,517.0,497.0,497.0,497.0,497.0,497.0,497.0,497.0,497.0,497.0,495.0,495.0,495.0,495.0,495.0,495.0,495.0,495.0,495.0,495.0,495.0,487.0,487.0,487.0,487.0,487.0,487.0,487.0,487.0,487.0,478.0,478.0,478.0,478.0,478.0,478.0,478.0,478.0,478.0,478.0,478.0,517.0,517.0,517.0,517.0,517.0,517.0,517.0,517.0,517.0,510.0,510.0,510.0,510.0,510.0,510.0,510.0,510.0,510.0,510.0,510.0
0,495.0,473.0,489.0,500,500,500,7.0,14.0,28.0,496.26666666666665,478.8333333333333,508.3666666666667,502.0,478.0,510.0,495.0,495.0,495.0,495.0,495.0,495.0,495.0,495.0,495.0,495.0,495.0,495.0,495.0,495.0,495.0,502.0,502.0,502.0,502.0,502.0,478.0,478.0,478.0,478.0,478.0,478.0,478.0,478.0,478.0,478.0,478.0,478.0,478.0,478.0,478.0,473.0,473.0,473.0,473.0,473.0,510.0,510.0,510.0,510.0,510.0,510.0,510.0,510.0,510.0,510.0,510.0,510.0,510.0,510.0,510.0,489.0,489.0,489.0,489.0,489.0
0,499.0,473.0,489.0,500,500,500,7.0,5.0,31.0,500.26666666666665,474.6666666666667,505.2,502.0,476.0,520.0,502.0,502.0,502.0,499.0,499.0,499.0,499.0,499.0,499.0,499.0,499.0,499.0,499.0,499.0,499.0,499.0,499.0,499.0,499.0,499.0,473.0,473.0,473.0,476.0,476.0,476.0,476.0,476.0,476.0,476.0,476.0,476.0,476.0,476.0,476.0,476.0,476.0,476.0,476.0,476.0,489.0,489.0,520.0,520.0,520.0,520.0,520.0,520.0,520.0,520.0,520.0,520.0,520.0,520.0,520.0,520.0,520.0,520.0,520.0,520.0
0,499.0,476.0,504.0,500,500,500,7.0,77.0,16.0,501.1666666666667,494.3666666666667,517.3333333333334,506.0,553.0,520.0,499.0,499.0,499.0,499.0,499.0,499.0,499.0,499.0,506.0,506.0,506.0,506.0,506.0,506.0,506.0,502.0,502.0,502.0,502.0,502.0,476.0,476.0,476.0,476.0,476.0,476.0,476.0,476.0,516.0,516.0,516.0,516.0,516.0,516.0,516.0,553.0,553.0,553.0,553.0,553.0,520.0,520.0,520.0,520.0,520.0,520.0,520.0,520.0,516.0,516.0,516.0,516.0,516.0,516.0,516.0,504.0,504.0,504.0,504.0,504.0
0,501.0,553.0,504.0,500,500,500,5.0,45.0,12.0,502.03333333333336,552.2333333333333,505.93333333333334,502.0,561.0,506.0,502.0,502.0,502.0,502.0,502.0,502.0,502.0,502.0,501.0,501.0,501.0,501.0,501.0,501.0,501.0,501.0,501.0,501.0,501.0,501.0,553.0,553.0,553.0,553.0,553.0,553.0,553.0,553.0,561.0,561.0,561.0,561.0,561.0,561.0,561.0,561.0,561.0,561.0,561.0,561.0,504.0,504.0,504.0,504.0,504.0,504.0,504.0,504.0,506.0,506.0,506.0,506.0,506.0,506.0,506.0,506.0,506.0,506.0,506.0,506.0
0,498.0,539.0,506.0,500,500,500,3.0,22.0,10.0,499.9,552.9333333333333,509.6666666666667,501.0,561.0,516.0,501.0,501.0,501.0,501.0,501.0,501.0,501.0,501.0,501.0,498.0,498.0,498.0,498.0,498.0,498.0,498.0,498.0,498.0,498.0,498.0,561.0,561.0,561.0,561.0,561.0,561.0,561.0,561.0,561.0,539.0,539.0,539.0,539.0,539.0,539.0,539.0,539.0,539.0,539.0,539.0,506.0,506.0,506.0,506.0,506.0,506.0,506.0,506.0,506.0,516.0,516.0,516.0,516.0,516.0,516.0,516.0,516.0,516.0,516.0,516.0
0,498.0,515.0,489.0,500,500,500,15.0,24.0,27.0,503.5,528.2,501.7,513.0,534.0,505.0,498.0,498.0,498.0,498.0,498.0,498.0,498.0,498.0,498.0,513.0,513.0,513.0,513.0,513.0,513.0,513.0,513.0,513.0,513.0,513.0,534.0,534.0,534.0,534.0,534.0,534.0,534.0,534.0,534.0,515.0,515.0,515.0,515.0,515.0,515.0,515.0,515.0,515.0,515.0,515.0,505.0,505.0,505.0,505.0,505.0,505.0,505.0,505.0,505.0,489.0,489.0,489.0,489.0,489.0,489.0,489.0,489.0,489.0,489.0,489.0
0,504.0,479.0,489.0,500,500,500,9.0,57.0,19.0,508.7,497.8,494.06666666666666,510.0,536.0,508.0,504.0,510.0,510.0,510.0,510.0,510.0,510.0,510.0,510.0,510.0,510.0,510.0,510.0,510.0,510.0,510.0,510.0,510.0,510.0,510.0,536.0,479.0,479.0,479.0,479.0,479.0,479.0,479.0,479.0,479.0,479.0,479.0,479.0,479.0,479.0,479.0,479.0,479.0,479.0,479.0,508.0,489.0,489.0,489.0,489.0,489.0,489.0,489.0,489.0,489.0,489.0,489.0,489.0,489.0,489.0,489.0,489.0,489.0,489.0,489.0
0,510.0,479.0,480.0,500,500,500,1.0,21.0,11.0,510.53333333333336,490.0,488.96666666666664,511.0,500.0,491.0,510.0,510.0,510.0,510.0,511.0,511.0,511.0,511.0,511.0,511.0,511.0,511.0,511.0,511.0,511.0,511.0,511.0,511.0,511.0,511.0,479.0,479.0,479.0,500.0,500.0,500.0,500.0,500.0,500.0,500.0,500.0,500.0,500.0,500.0,500.0,498.0,498.0,498.0,498.0,498.0,489.0,489.0,489.0,491.0,491.0,491.0,491.0,491.0,491.0,491.0,491.0,491.0,491.0,491.0,491.0,480.0,480.0,480.0,480.0,480.0
0,511.0,494.0,480.0,500,500,500,6.0,6.0,40.0,512.8,497.4,495.3,517.0,498.0,520.0,511.0,511.0,511.0,511.0,511.0,511.0,511.0,511.0,511.0,511.0,511.0,517.0,517.0,517.0,517.0,517.0,517.0,517.0,517.0,517.0,498.0,498.0,498.0,498.0,498.0,498.0,498.0,498.0,498.0,498.0,498.0,494.0,494.0,494.0,494.0,494.0,494.0,494.0,494.0,494.0,480.0,480.0,480.0,480.0,480.0,480.0,480.0,480.0,480.0,480.0,480.0,520.0,520.0,520.0,520.0,520.0,520.0,520.0,520.0,520.0
0,509.0,494.0,508.0,500,500,500,15.0,47.0,12.0,518.0,511.8333333333333,515.0,524.0,541.0,520.0,517.0,517.0,517.0,517.0,509.0,509.0,509.0,524.0,524.0,524.0,524.0,524.0,524.0,524.0,524.0,524.0,524.0,524.0,524.0,524.0,494.0,494.0,494.0,507.0,507.0,507.0,507.0,541.0,541.0,541.0,541.0,541.0,541.0,541.0,541.0,541.0,541.0,541.0,541.0,541.0,520.0,520.0,520.0,508.0,508.0,508.0,508.0,511.0,511.0,511.0,511.0,511.0,511.0,511.0,511.0,511.0,511.0,511.0,511.0,511.0
0,503.0,505.0,502.0,500,500,500,21.0,36.0,10.0,514.3666666666667,529.9,509.8,524.0,541.0,512.0,524.0,524.0,524.0,524.0,524.0,524.0,503.0,503.0,503.0,503.0,503.0,503.0,503.0,503.0,503.0,504.0,504.0,504.0,504.0,504.0,541.0,541.0,541.0,541.0,541.0,541.0,524.0,524.0,524.0,524.0,524.0,524.0,524.0,524.0,524.0,505.0,505.0,505.0,505.0,505.0,511.0,511.0,511.0,511.0,511.0,511.0,512.0,512.0,512.0,512.0,512.0,512.0,512.0,512.0,512.0,502.0,502.0,502.0,502.0,502.0
0,503.0,497.0,502.0,500,500,500,1.0,27.0,12.0,503.53333333333336,509.3666666666667,507.0,504.0,505.0,514.0,504.0,504.0,504.0,504.0,504.0,504.0,504.0,504.0,504.0,504.0,504.0,504.0,504.0,503.0,503.0,503.0,503.0,503.0,503.0,503.0,505.0,505.0,505.0,505.0,505.0,505.0,505.0,505.0,505.0,505.0,505.0,505.0,505.0,497.0,497.0,497.0,497.0,497.0,497.0,497.0,502.0,502.0,502.0,502.0,502.0,502.0,502.0,502.0,502.0,502.0,502.0,502.0,502.0,514.0,514.0,514.0,514.0,514.0,514.0,514.0
0,497.0,497.0,514.0,500,500,500,7.0,8.0,15.0,503.1333333333333,499.8,510.1,503.0,501.0,517.0,503.0,503.0,503.0,503.0,503.0,503.0,503.0,503.0,503.0,503.0,503.0,503.0,503.0,503.0,503.0,503.0,503.0,503.0,497.0,497.0,497.0,497.0,497.0,497.0,497.0,497.0,497.0,497.0,497.0,497.0,497.0,497.0,497.0,497.0,497.0,497.0,497.0,497.0,501.0,501.0,514.0,514.0,514.0,514.0,514.0,514.0,514.0,514.0,514.0,514.0,514.0,514.0,514.0,514.0,514.0,514.0,514.0,514.0,517.0,517.0
0,497.0,497.0,514.0,500,500,500,10.0,14.0,9.0,500.6,500.26666666666665,516.3,507.0,511.0,523.0,503.0,503.0,503.0,497.0,497.0,497.0,497.0,497.0,497.0,497.0,497.0,497.0,497.0,497.0,507.0,507.0,507.0,507.0,507.0,507.0,497.0,497.0,497.0,501.0,501.0,501.0,501.0,501.0,501.0,501.0,501.0,501.0,501.0,501.0,511.0,511.0,511.0,511.0,511.0,511.0,514.0,514.0,517.0,517.0,517.0,517.0,517.0,517.0,517.0,517.0,517.0,517.0,517.0,517.0,523.0,523.0,523.0,523.0,523.0,523.0
0,497.0,489.0,517.0,500,500,500,18.0,22.0,6.0,503.8,504.8,520.2,515.0,511.0,523.0,497.0,497.0,507.0,507.0,507.0,507.0,507.0,507.0,507.0,507.0,507.0,507.0,507.0,507.0,507.0,507.0,515.0,515.0,515.0,515.0,501.0,501.0,511.0,511.0,511.0,511.0,511.0,511.0,511.0,511.0,511.0,511.0,511.0,511.0,511.0,511.0,489.0,489.0,489.0,489.0,517.0,517.0,523.0,523.0,523.0,523.0,523.0,523.0,523.0,523.0,523.0,523.0,523.0,523.0,523.0,523.0,519.0,519.0,519.0,519.0
0,515.0,486.0,504.0,500,500,500,9.0,25.0,19.0,513.6333333333333,492.7,516.3,516.0,489.0,519.0,515.0,515.0,515.0,515.0,515.0,515.0,515.0,515.0,515.0,515.0,515.0,515.0,515.0,516.0,516.0,516.0,516.0,516.0,516.0,516.0,489.0,489.0,489.0,489.0,489.0,489.0,489.0,489.0,489.0,489.0,489.0,489.0,489.0,486.0,486.0,486.0,486.0,486.0,486.0,486.0,519.0,519.0,519.0,519.0,519.0,519.0,519.0,519.0,519.0,519.0,519.0,519.0,519.0,504.0,504.0,504.0,504.0,504.0,504.0,504.0
0,516.0,485.0,504.0,500,500,500,15.0,4.0,15.0,519.0666666666667,486.3666666666667,509.1,530.0,486.0,513.0,516.0,516.0,516.0,516.0,516.0,516.0,516.0,516.0,516.0,516.0,516.0,516.0,516.0,530.0,530.0,530.0,530.0,530.0,530.0,530.0,486.0,486.0,486.0,486.0,486.0,486.0,486.0,486.0,486.0,486.0,486.0,486.0,486.0,485.0,485.0,485.0,485.0,485.0,485.0,485.0,504.0,504.0,504.0,504.0,504.0,504.0,504.0,504.0,504.0,504.0,504.0,504.0,504.0,513.0,513.0,513.0,513.0,513.0,513.0,513.0
0,530.0,485.0,491.0,500,500,500,0.0,7.0,22.0,530.0,486.4,508.6,530.0,492.0,513.0,530.0,530.0,530.0,530.0,530.0,530.0,530.0,530.0,530.0,530.0,530.0,530.0,530.0,530.0,530.0,530.0,530.0,530.0,530.0,530.0,485.0,485.0,485.0,485.0,485.0,485.0,485.0,485.0,485.0,485.0,485.0,485.0,485.0,485.0,492.0,492.0,492.0,492.0,492.0,492.0,513.0,513.0,513.0,513.0,513.0,513.0,513.0,513.0,513.0,513.0,513.0,513.0,513.0,513.0,491.0,491.0,491.0,491.0,491.0,491.0
0,520.0,481.0,491.0,500,500,500,10.0,11.0,18.0,525.3333333333334,486.8666666666667,499.4,530.0,492.0,509.0,530.0,530.0,530.0,530.0,530.0,520.0,520.0,520.0,520.0,520.0,520.0,520.0,520.0,520.0,520.0,520.0,520.0,520.0,520.0,520.0,492.0,492.0,492.0,492.0,492.0,481.0,481.0,481.0,481.0,481.0,481.0,481.0,481.0,481.0,481.0,481.0,481.0,481.0,481.0,481.0,491.0,491.0,491.0,491.0,491.0,509.0,509.0,509.0,509.0,509.0,509.0,509.0,509.0,509.0,509.0,509.0,509.0,509.0,509.0,509.0
0,499.0,481.0,509.0,500,500,500,21.0,77.0,18.0,509.93333333333334,515.4666666666667,514.8,520.0,558.0,527.0,520.0,520.0,520.0,504.0,504.0,504.0,504.0,504.0,504.0,504.0,504.0,504.0,504.0,504.0,499.0,499.0,499.0,499.0,499.0,499.0,481.0,481.0,481.0,533.0,533.0,533.0,533.0,533.0,533.0,533.0,533.0,533.0,533.0,533.0,558.0,558.0,558.0,558.0,558.0,558.0,509.0,509.0,509.0,515.0,515.0,515.0,515.0,515.0,515.0,515.0,515.0,515.0,515.0,515.0,527.0,527.0,527.0,527.0,527.0,527.0
0,499.0,547.0,502.0,500,500,500,5.0,25.0,25.0,500.6333333333333,549.7666666666667,521.7333333333333,501.0,558.0,527.0,499.0,499.0,499.0,499.0,499.0,499.0,499.0,499.0,499.0,499.0,499.0,499.0,499.0,499.0,499.0,499.0,499.0,501.0,501.0,501.0,558.0,558.0,558.0,558.0,558.0,558.0,558.0,558.0,558.0,558.0,558.0,558.0,558.0,558.0,558.0,558.0,558.0,547.0,547.0,547.0,527.0,527.0,527.0,527.0,527.0,527.0,527.0,527.0,527.0,527.0,527.0,527.0,527.0,527.0,527.0,527.0,527.0,502.0,502.0,502.0
0,499.0,533.0,502.0,500,500,500,4.0,25.0,25.0,500.6666666666667,548.2333333333333,512.9666666666667,503.0,558.0,527.0,499.0,501.0,501.0,501.0,501.0,501.0,501.0,501.0,501.0,501.0,501.0,501.0,501.0,501.0,503.0,503.0,503.0,503.0,503.0,503.0,558.0,547.0,547.0,547.0,547.0,547.0,547.0,547.0,547.0,547.0,547.0,547.0,547.0,547.0,533.0,533.0,533.0,533.0,533.0,533.0,527.0,502.0,502.0,502.0,502.0,502.0,502.0,502.0,502.0,502.0,502.0,502.0,502.0,502.0,511.0,511.0,511.0,511.0,511.0,511.0
0,503.0,512.0,488.0,500,500,500,4.0,35.0,23.0,502.73333333333335,533.7,504.46666666666664,505.0,533.0,511.0,503.0,503.0,503.0,503.0,503.0,503.0,503.0,503.0,503.0,503.0,503.0,503.0,503.0,503.0,503.0,505.0,505.0,505.0,505.0,505.0,533.0,533.0,533.0,533.0,533.0,533.0,533.0,533.0,533.0,533.0,533.0,533.0,533.0,533.0,533.0,512.0,512.0,512.0,512.0,512.0,511.0,511.0,511.0,511.0,511.0,511.0,511.0,511.0,511.0,511.0,511.0,511.0,511.0,511.0,511.0,488.0,488.0,488.0,488.0,488.0
0,505.0,503.0,488.0,500,500,500,5.0,30.0,23.0,506.3666666666667,508.9,492.53333333333336,508.0,512.0,494.0,505.0,505.0,505.0,505.0,505.0,508.0,508.0,508.0,508.0,508.0,508.0,508.0,508.0,508.0,508.0,508.0,508.0,508.0,508.0,508.0,512.0,512.0,512.0,512.0,512.0,503.0,503.0,503.0,503.0,503.0,503.0,503.0,503.0,503.0,503.0,503.0,503.0,503.0,503.0,503.0,488.0,488.0,488.0,488.0,488.0,494.0,494.0,494.0,494.0,494.0,494.0,494.0,494.0,494.0,494.0,494.0,494.0,494.0,494.0,494.0
0,504.0,501.0,494.0,500,500,500,6.0,10.0,21.0,506.6,506.1333333333333,499.6666666666667,510.0,511.0,515.0,508.0,508.0,504.0,504.0,504.0,504.0,504.0,504.0,504.0,504.0,504.0,504.0,504.0,504.0,504.0,510.0,510.0,510.0,510.0,510.0,503.0,503.0,511.0,511.0,511.0,511.0,511.0,511.0,511.0,511.0,511.0,511.0,511.0,511.0,511.0,501.0,501.0,501.0,501.0,501.0,494.0,494.0,499.0,499.0,499.0,499.0,499.0,499.0,499.0,499.0,499.0,499.0,499.0,499.0,499.0,515.0,515.0,515.0,515.0,515.0
0,506.0,501.0,513.0,500,500,500,4.0,5.0,2.0,507.8666666666667,503.6666666666667,513.9333333333333,510.0,506.0,515.0,510.0,510.0,510.0,510.0,506.0,506.0,506.0,506.0,506.0,506.0,506.0,506.0,506.0,506.0,506.0,506.0,506.0,506.0,506.0,506.0,501.0,501.0,501.0,501.0,506.0,506.0,506.0,506.0,506.0,506.0,506.0,506.0,506.0,506.0,506.0,506.0,506.0,506.0,506.0,506.0,515.0,515.0,515.0,515.0,513.0,513.0,513.0,513.0,513.0,513.0,513.0,513.0,513.0,513.0,513.0,513.0,513.0,513.0,513.0,513.0
0,492.0,498.0,492.0,500,500,500,14.0,8.0,30.0,500.76666666666665,502.8333333333333,505.6,506.0,506.0,522.0,506.0,506.0,506.0,506.0,506.0,506.0,492.0,492.0,492.0,492.0,492.0,492.0,492.0,492.0,492.0,492.0,503.0,503.0,503.0,503.0,506.0,506.0,506.0,506.0,506.0,506.0,498.0,498.0,498.0,498.0,498.0,498.0,498.0,498.0,498.0,498.0,499.0,499.0,499.0,499.0,513.0,513.0,513.0,513.0,513.0,513.0,492.0,492.0,492.0,492.0,492.0,492.0,492.0,492.0,492.0,492.0,522.0,522.0,522.0,522.0
0,503.0,499.0,510.0,500,500,500,22.0,13.0,30.0,507.03333333333336,503.76666666666665,516.2,514.0,511.0,522.0,503.0,503.0,503.0,503.0,503.0,503.0,514.0,514.0,514.0,514.0,514.0,514.0,514.0,514.0,514.0,514.0,514.0,514.0,514.0,514.0,499.0,499.0,499.0,499.0,499.0,499.0,511.0,511.0,511.0,511.0,511.0,511.0,511.0,511.0,511.0,511.0,511.0,511.0,511.0,511.0,522.0,522.0,522.0,522.0,522.0,522.0,510.0,510.0,510.0,510.0,510.0,510.0,510.0,510.0,510.0,510.0,510.0,510.0,510.0,510.0
0,514.0,511.0,506.0,500,500,500,13.0,29.0,26.0,521.4333333333333,528.1666666666666,513.6666666666666,527.0,540.0,532.0,514.0,514.0,526.0,526.0,526.0,526.0,526.0,526.0,526.0,526.0,526.0,526.0,526.0,527.0,527.0,527.0,527.0,527.0,527.0,527.0,511.0,511.0,540.0,540.0,540.0,540.0,540.0,540.0,540.0,540.0,540.0,540.0,540.0,539.0,539.0,539.0,539.0,539.0,539.0,539.0,510.0,510.0,506.0,506.0,506.0,506.0,506.0,506.0,506.0,506.0,506.0,506.0,506.0,532.0,532.0,532.0,532.0,532.0,532.0,532.0
0,520.0,505.0,532.0,500,500,500,7.0,35.0,31.0,526.2,537.0666666666667,523.6666666666666,527.0,539.0,537.0,527.0,527.0,527.0,527.0,527.0,527.0,527.0,527.0,527.0,527.0,527.0,527.0,527.0,527.0,527.0,527.0,527.0,527.0,520.0,520.0,539.0,539.0,539.0,539.0,539.0,539.0,539.0,539.0,539.0,539.0,539.0,539.0,539.0,539.0,539.0,539.0,539.0,539.0,505.0,505.0,532.0,532.0,532.0,532.0,532.0,532.0,532.0,532.0,532.0,532.0,532.0,532.0,532.0,532.0,532.0,532.0,532.0,532.0,537.0,537.0
0,518.0,493.0,519.0,500,500,500,2.0,12.0,18.0,518.7333333333333,497.4,525.6,520.0,505.0,537.0,520.0,518.0,518.0,518.0,518.0,518.0,518.0,518.0,518.0,518.0,518.0,518.0,518.0,518.0,518.0,518.0,518.0,518.0,518.0,515.0,505.0,493.0,493.0,493.0,493.0,493.0,493.0,493.0,493.0,493.0,493.0,493.0,493.0,493.0,493.0,493.0,493.0,493.0,493.0,517.0,537.0,519.0,519.0,519.0,519.0,519.0,519.0,519.0,519.0,519.0,519.0,519.0,519.0,519.0,519.0,519.0,519.0,519.0,519.0,523.0
0,508.0,493.0,498.0,500,500,500,10.0,24.0,25.0,516.1,501.8,518.1,518.0,517.0,523.0,518.0,518.0,518.0,518.0,518.0,518.0,518.0,518.0,515.0,515.0,515.0,515.0,515.0,515.0,515.0,515.0,508.0,508.0,508.0,508.0,493.0,493.0,493.0,493.0,493.0,493.0,493.0,493.0,517.0,517.0,517.0,517.0,517.0,517.0,517.0,517.0,509.0,509.0,509.0,509.0,519.0,519.0,519.0,519.0,519.0,519.0,519.0,519.0,523.0,523.0,523.0,523.0,523.0,523.0,523.0,523.0,498.0,498.0,498.0,498.0
0,508.0,493.0,498.0,500,500,500,10.0,24.0,25.0,511.6333333333333,507.6666666666667,509.2,515.0,517.0,523.0,515.0,515.0,515.0,508.0,508.0,508.0,508.0,508.0,508.0,508.0,508.0,508.0,508.0,508.0,508.0,508.0,508.0,510.0,510.0,510.0,517.0,517.0,517.0,509.0,509.0,509.0,509.0,509.0,509.0,509.0,509.0,509.0,509.0,509.0,509.0,509.0,509.0,493.0,493.0,493.0,523.0,523.0,523.0,498.0,498.0,498.0,498.0,498.0,498.0,498.0,498.0,498.0,498.0,498.0,498.0,498.0,498.0,507.0,507.0,507.0
0,510.0,491.0,496.0,500,500,500,5.0,18.0,11.0,510.2,497.26666666666665,501.3666666666667,513.0,493.0,507.0,510.0,510.0,510.0,510.0,510.0,510.0,510.0,510.0,510.0,510.0,510.0,513.0,513.0,513.0,513.0,513.0,513.0,513.0,513.0,513.0,493.0,493.0,493.0,493.0,493.0,493.0,493.0,493.0,493.0,493.0,493.0,491.0,491.0,491.0,491.0,491.0,491.0,491.0,491.0,491.0,507.0,507.0,507.0,507.0,507.0,507.0,507.0,507.0,507.0,507.0,507.0,496.0,496.0,496.0,496.0,496.0,496.0,496.0,496.0,496.0
0,505.0,491.0,489.0,500,500,500,8.0,21.0,18.0,510.6333333333333,494.6666666666667,497.23333333333335,513.0,512.0,501.0,513.0,513.0,513.0,513.0,513.0,513.0,513.0,513.0,510.0,510.0,510.0,510.0,510.0,510.0,505.0,505.0,505.0,505.0,505.0,505.0,491.0,491.0,491.0,491.0,491.0,491.0,491.0,491.0,493.0,493.0,493.0,493.0,493.0,493.0,512.0,512.0,512.0,512.0,512.0,512.0,496.0,496.0,496.0,496.0,496.0,496.0,496.0,496.0,489.0,489.0,489.0,489.0,489.0,489.0,501.0,501.0,501.0,501.0,501.0,501.0
0,485.0,512.0,497.0,500,500,500,20.0,18.0,4.0,497.0,519.8,499.26666666666665,505.0,530.0,501.0,505.0,505.0,505.0,505.0,505.0,485.0,485.0,485.0,485.0,485.0,485.0,485.0,485.0,485.0,485.0,485.0,485.0,485.0,485.0,485.0,512.0,512.0,512.0,512.0,512.0,530.0,530.0,530.0,530.0,530.0,530.0,530.0,530.0,530.0,530.0,530.0,530.0,530.0,530.0,530.0,501.0,501.0,501.0,501.0,501.0,497.0,497.0,497.0,497.0,497.0,497.0,497.0,497.0,497.0,497.0,497.0,497.0,497.0,497.0,497.0
0,482.0,530.0,497.0,500,500,500,10.0,51.0,17.0,486.53333333333336,550.9333333333333,504.53333333333336,492.0,581.0,514.0,485.0,482.0,482.0,482.0,482.0,482.0,482.0,482.0,482.0,492.0,492.0,492.0,492.0,492.0,492.0,492.0,492.0,492.0,492.0,492.0,530.0,581.0,581.0,581.0,581.0,581.0,581.0,581.0,581.0,552.0,552.0,552.0,552.0,552.0,552.0,552.0,552.0,552.0,552.0,552.0,497.0,504.0,504.0,504.0,504.0,504.0,504.0,504.0,504.0,514.0,514.0,514.0,514.0,514.0,514.0,514.0,514.0,514.0,514.0,514.0
0,491.0,508.0,507.0,500,500,500,14.0,44.0,7.0,494.3,536.3,511.1,505.0,552.0,514.0,492.0,492.0,492.0,492.0,492.0,491.0,491.0,491.0,491.0,491.0,491.0,491.0,505.0,505.0,505.0,505.0,505.0,505.0,505.0,505.0,552.0,552.0,552.0,552.0,552.0,529.0,529.0,529.0,529.0,529.0,529.0,529.0,508.0,508.0,508.0,508.0,508.0,508.0,508.0,508.0,514.0,514.0,514.0,514.0,514.0,507.0,507.0,507.0,507.0,507.0,507.0,507.0,510.0,510.0,510.0,510.0,510.0,510.0,510.0,510.0
0,505.0,489.0,504.0,500,500,500,25.0,40.0,6.0,503.6333333333333,509.0,507.7,516.0,508.0,510.0,505.0,505.0,505.0,505.0,505.0,505.0,505.0,505.0,505.0,509.0,509.0,509.0,509.0,509.0,516.0,516.0,516.0,516.0,516.0,516.0,508.0,508.0,508.0,508.0,508.0,508.0,508.0,508.0,508.0,498.0,498.0,498.0,498.0,498.0,489.0,489.0,489.0,489.0,489.0,489.0,510.0,510.0,510.0,510.0,510.0,510.0,510.0,510.0,510.0,505.0,505.0,505.0,505.0,505.0,504.0,504.0,504.0,504.0,504.0,504.0
0,516.0,489.0,500.0,500,500,500,11.0,19.0,10.0,513.1333333333333,493.3333333333333,504.8666666666667,516.0,489.0,504.0,516.0,516.0,516.0,516.0,516.0,516.0,516.0,516.0,516.0,516.0,516.0,516.0,516.0,516.0,516.0,516.0,516.0,516.0,516.0,516.0,489.0,489.0,489.0,489.0,489.0,489.0,489.0,489.0,489.0,489.0,489.0,489.0,489.0,489.0,489.0,489.0,489.0,489.0,489.0,489.0,504.0,504.0,504.0,504.0,504.0,504.0,504.0,504.0,504.0,504.0,504.0,504.0,504.0,504.0,504.0,504.0,504.0,504.0,500.0,500.0
0,516.0,480.0,494.0,500,500,500,7.0,9.0,10.0,516.2333333333333,488.7,502.2,523.0,489.0,504.0,516.0,516.0,516.0,516.0,516.0,516.0,516.0,516.0,516.0,516.0,516.0,516.0,516.0,516.0,516.0,516.0,516.0,516.0,523.0,523.0,489.0,489.0,489.0,489.0,489.0,489.0,489.0,489.0,489.0,489.0,489.0,489.0,489.0,489.0,489.0,489.0,489.0,489.0,480.0,480.0,504.0,504.0,504.0,504.0,504.0,504.0,504.0,500.0,500.0,500.0,500.0,500.0,500.0,500.0,500.0,500.0,500.0,500.0,494.0,494.0
0,516.0,480.0,494.0,500,500,500,10.0,21.0,23.0,520.8,487.8,501.1333333333333,526.0,501.0,517.0,516.0,523.0,523.0,523.0,523.0,523.0,523.0,523.0,523.0,523.0,523.0,523.0,526.0,526.0,526.0,526.0,526.0,526.0,526.0,526.0,489.0,480.0,480.0,480.0,480.0,480.0,480.0,480.0,480.0,480.0,480.0,501.0,501.0,501.0,501.0,501.0,501.0,501.0,501.0,501.0,500.0,494.0,494.0,494.0,494.0,494.0,494.0,494.0,494.0,494.0,494.0,517.0,517.0,517.0,517.0,517.0,517.0,517.0,517.0,517.0
0,526.0,499.0,505.0,500,500,500,19.0,11.0,12.0,534.6,503.8333333333333,512.6,545.0,510.0,517.0,526.0,526.0,533.0,533.0,533.0,533.0,533.0,533.0,533.0,545.0,545.0,545.0,545.0,545.0,545.0,545.0,545.0,545.0,545.0,545.0,501.0,501.0,499.0,499.0,499.0,499.0,499.0,499.0,499.0,510.0,510.0,510.0,510.0,510.0,510.0,510.0,510.0,510.0,510.0,510.0,517.0,517.0,517.0,517.0,517.0,517.0,517.0,517.0,517.0,505.0,505.0,505.0,505.0,505.0,505.0,505.0,505.0,505.0,505.0,505.0
0,536.0,510.0,505.0,500,500,500,12.0,40.0,24.0,541.8,512.0333333333333,510.2,545.0,539.0,529.0,545.0,545.0,545.0,545.0,545.0,545.0,545.0,545.0,545.0,545.0,545.0,545.0,545.0,545.0,545.0,545.0,536.0,536.0,536.0,536.0,510.0,510.0,510.0,510.0,510.0,510.0,510.0,510.0,510.0,510.0,510.0,510.0,510.0,510.0,510.0,510.0,539.0,539.0,539.0,539.0,505.0,505.0,505.0,505.0,505.0,505.0,505.0,505.0,505.0,505.0,505.0,505.0,505.0,505.0,505.0,505.0,529.0,529.0,529.0,529.0
0,516.0,535.0,525.0,500,500,500,29.0,29.0,24.0,533.7333333333333,530.3333333333334,521.6666666666666,536.0,539.0,529.0,536.0,536.0,536.0,536.0,536.0,536.0,536.0,536.0,536.0,536.0,536.0,536.0,536.0,516.0,516.0,516.0,516.0,516.0,516.0,516.0,539.0,539.0,539.0,539.0,539.0,539.0,539.0,539.0,539.0,539.0,539.0,539.0,539.0,535.0,535.0,535.0,535.0,535.0,535.0,535.0,529.0,529.0,529.0,529.0,529.0,529.0,529.0,529.0,529.0,529.0,529.0,529.0,529.0,525.0,525.0,525.0,525.0,525.0,525.0,525.0
0,498.0,535.0,505.0,500,500,500,18.0,4.0,20.0,508.2,536.7333333333333,516.3333333333334,516.0,539.0,525.0,516.0,516.0,516.0,516.0,516.0,516.0,516.0,498.0,498.0,498.0,498.0,498.0,498.0,498.0,498.0,498.0,498.0,498.0,498.0,498.0,535.0,535.0,535.0,535.0,535.0,535.0,535.0,539.0,539.0,539.0,539.0,539.0,539.0,539.0,539.0,539.0,539.0,539.0,539.0,539.0,525.0,525.0,525.0,525.0,525.0,525.0,525.0,505.0,505.0,505.0,505.0,505.0,505.0,505.0,505.0,505.0,505.0,505.0,505.0,505.0
0,466.0,529.0,500.0,500,500,500,32.0,10.0,18.0,476.43333333333334,532.8333333333334,508.8,477.0,534.0,518.0,477.0,477.0,477.0,477.0,477.0,477.0,477.0,466.0,466.0,466.0,466.0,466.0,466.0,466.0,466.0,466.0,466.0,466.0,466.0,466.0,534.0,534.0,534.0,534.0,534.0,534.0,534.0,529.0,529.0,529.0,529.0,529.0,529.0,529.0,529.0,529.0,529.0,529.0,529.0,529.0,500.0,500.0,500.0,500.0,500.0,500.0,500.0,518.0,518.0,518.0,518.0,518.0,518.0,518.0,518.0,518.0,518.0,518.0,518.0,518.0
0,471.0,457.0,479.0,500,500,500,20.0,72.0,39.0,479.5,479.2,492.8,486.0,507.0,512.0,471.0,471.0,486.0,486.0,486.0,486.0,486.0,486.0,486.0,486.0,486.0,486.0,486.0,486.0,486.0,486.0,486.0,486.0,486.0,507.0,507.0,507.0,457.0,457.0,457.0,457.0,457.0,457.0,457.0,457.0,457.0,457.0,457.0,457.0,457.0,457.0,457.0,457.0,457.0,532.0,512.0,512.0,479.0,479.0,479.0,479.0,479.0,479.0,479.0,479.0,479.0,479.0,479.0,479.0,479.0,479.0,479.0,479.0,479.0,449.0
0,486.0,457.0,410.0,500,500,500,21.0,75.0,69.0,497.96666666666664,494.1666666666667,453.5,507.0,532.0,479.0,486.0,507.0,507.0,507.0,507.0,507.0,507.0,507.0,507.0,507.0,507.0,507.0,507.0,507.0,499.0,499.0,499.0,499.0,499.0,499.0,457.0,532.0,532.0,532.0,532.0,532.0,532.0,532.0,532.0,532.0,532.0,532.0,532.0,532.0,470.0,470.0,470.0,470.0,470.0,470.0,479.0,449.0,449.0,449.0,449.0,449.0,449.0,449.0,449.0,449.0,449.0,449.0,449.0,449.0,410.0,410.0,410.0,410.0,410.0,410.0
0,499.0,470.0,410.0,500,500,500,27.0,62.0,179.0,502.76666666666665,483.26666666666665,433.1,526.0,520.0,589.0,499.0,499.0,499.0,499.0,499.0,499.0,499.0,499.0,499.0,499.0,499.0,499.0,499.0,526.0,526.0,526.0,526.0,526.0,526.0,526.0,470.0,470.0,470.0,470.0,470.0,470.0,470.0,470.0,470.0,470.0,470.0,470.0,470.0,520.0,520.0,520.0,520.0,520.0,520.0,520.0,410.0,410.0,410.0,410.0,410.0,410.0,410.0,410.0,410.0,410.0,410.0,410.0,410.0,589.0,589.0,589.0,589.0,589.0,589.0,589.0
0,532.0,489.0,356.0,500,500,500,46.0,177.0,233.0,537.6333333333333,545.9666666666667,522.7666666666667,572.0,666.0,584.0,535.0,535.0,535.0,535.0,535.0,535.0,535.0,535.0,535.0,535.0,535.0,535.0,535.0,572.0,572.0,572.0,572.0,572.0,572.0,572.0,489.0,489.0,489.0,489.0,489.0,489.0,489.0,489.0,489.0,489.0,489.0,489.0,489.0,666.0,666.0,666.0,666.0,666.0,666.0,666.0,584.0,584.0,584.0,584.0,584.0,584.0,584.0,584.0,584.0,584.0,584.0,584.0,584.0,356.0,356.0,356.0,356.0,356.0,356.0,356.0
0,572.0,225.0,356.0,500,500,500,297.0,441.0,228.0,588.1333333333333,574.7,430.6,832.0,666.0,494.0,572.0,572.0,572.0,572.0,572.0,572.0,572.0,572.0,572.0,572.0,572.0,572.0,572.0,572.0,572.0,832.0,832.0,832.0,832.0,832.0,666.0,666.0,666.0,666.0,666.0,666.0,666.0,666.0,666.0,666.0,666.0,666.0,666.0,666.0,666.0,225.0,225.0,225.0,225.0,225.0,356.0,356.0,356.0,356.0,356.0,356.0,356.0,356.0,356.0,356.0,356.0,356.0,356.0,356.0,356.0,494.0,494.0,494.0,494.0,494.0
0,655.0,225.0,494.0,500,500,500,260.0,441.0,171.0,758.4333333333333,277.1,501.5,832.0,327.0,527.0,832.0,832.0,832.0,832.0,832.0,832.0,832.0,832.0,832.0,655.0,655.0,655.0,655.0,655.0,655.0,655.0,655.0,655.0,655.0,655.0,225.0,225.0,225.0,225.0,225.0,225.0,225.0,225.0,225.0,327.0,327.0,327.0,327.0,327.0,327.0,327.0,327.0,327.0,327.0,327.0,494.0,494.0,494.0,494.0,494.0,494.0,494.0,494.0,494.0,527.0,527.0,527.0,527.0,527.0,527.0,527.0,527.0,527.0,527.0,527.0
0,544.0,311.0,502.0,500,500,500,111.0,107.0,56.0,575.3333333333334,338.6333333333333,539.7666666666667,599.0,418.0,558.0,599.0,599.0,544.0,544.0,544.0,544.0,544.0,544.0,544.0,544.0,544.0,544.0,544.0,544.0,544.0,544.0,544.0,544.0,544.0,544.0,418.0,418.0,311.0,311.0,311.0,311.0,311.0,311.0,311.0,311.0,311.0,311.0,311.0,311.0,311.0,311.0,311.0,311.0,311.0,311.0,502.0,502.0,558.0,558.0,558.0,558.0,558.0,558.0,558.0,558.0,558.0,558.0,558.0,558.0,558.0,558.0,558.0,558.0,558.0,558.0
0,342.0,311.0,469.0,500,500,500,202.0,274.0,89.0,452.53333333333336,455.26666666666665,512.6666666666666,544.0,585.0,558.0,544.0,544.0,544.0,544.0,403.0,403.0,403.0,403.0,403.0,403.0,403.0,342.0,342.0,342.0,342.0,342.0,342.0,342.0,342.0,342.0,311.0,311.0,311.0,311.0,585.0,585.0,585.0,585.0,585.0,585.0,585.0,578.0,578.0,578.0,578.0,578.0,578.0,578.0,578.0,578.0,558.0,558.0,558.0,558.0,477.0,477.0,477.0,477.0,477.0,477.0,477.0,469.0,469.0,469.0,469.0,469.0,469.0,469.0,469.0,469.0
0,342.0,488.0,469.0,500,500,500,77.0,97.0,33.0,364.56666666666666,554.2333333333333,478.06666666666666,419.0,578.0,502.0,342.0,342.0,342.0,342.0,342.0,342.0,342.0,342.0,342.0,342.0,342.0,342.0,419.0,419.0,419.0,419.0,419.0,419.0,419.0,419.0,578.0,578.0,578.0,578.0,578.0,578.0,578.0,578.0,578.0,578.0,578.0,578.0,488.0,488.0,488.0,488.0,488.0,488.0,488.0,488.0,469.0,469.0,469.0,469.0,469.0,469.0,469.0,469.0,469.0,469.0,469.0,469.0,502.0,502.0,502.0,502.0,502.0,502.0,502.0,502.0
0,419.0,440.0,488.0,500,500,500,191.0,138.0,100.0,439.2,498.4,501.53333333333336,533.0,488.0,569.0,419.0,419.0,419.0,419.0,419.0,419.0,419.0,419.0,419.0,419.0,521.0,521.0,521.0,521.0,521.0,521.0,533.0,533.0,533.0,533.0,488.0,488.0,488.0,488.0,488.0,488.0,488.0,488.0,488.0,488.0,482.0,482.0,482.0,482.0,482.0,482.0,440.0,440.0,440.0,440.0,502.0,502.0,502.0,502.0,502.0,502.0,502.0,502.0,502.0,502.0,488.0,488.0,488.0,488.0,488.0,488.0,569.0,569.0,569.0,569.0
0,533.0,423.0,569.0,500,500,500,37.0,59.0,157.0,537.6666666666666,442.46666666666664,581.0,558.0,440.0,645.0,533.0,533.0,533.0,533.0,533.0,533.0,533.0,533.0,533.0,533.0,558.0,558.0,558.0,558.0,558.0,558.0,558.0,558.0,558.0,558.0,440.0,440.0,440.0,440.0,440.0,440.0,440.0,440.0,440.0,440.0,423.0,423.0,423.0,423.0,423.0,423.0,423.0,423.0,423.0,423.0,569.0,569.0,569.0,569.0,569.0,569.0,569.0,569.0,569.0,569.0,645.0,645.0,645.0,645.0,645.0,645.0,645.0,645.0,645.0,645.0
0,500.0,423.0,558.0,500,500,500,58.0,56.0,87.0,540.5333333333333,438.6,616.0333333333333,558.0,479.0,645.0,558.0,558.0,558.0,558.0,558.0,558.0,558.0,558.0,558.0,558.0,524.0,500.0,500.0,500.0,500.0,500.0,500.0,500.0,500.0,500.0,423.0,423.0,423.0,423.0,423.0,423.0,423.0,423.0,423.0,444.0,444.0,479.0,479.0,479.0,479.0,479.0,479.0,479.0,479.0,479.0,645.0,645.0,645.0,645.0,645.0,645.0,645.0,645.0,645.0,591.0,591.0,558.0,558.0,558.0,558.0,558.0,558.0,558.0,558.0,558.0
0,486.0,479.0,514.0,500,500,500,38.0,52.0,77.0,497.8666666666667,481.2,545.9,500.0,496.0,558.0,500.0,500.0,500.0,500.0,500.0,500.0,500.0,500.0,500.0,486.0,486.0,486.0,486.0,486.0,486.0,486.0,486.0,486.0,486.0,486.0,479.0,479.0,479.0,479.0,479.0,479.0,479.0,479.0,479.0,496.0,496.0,496.0,496.0,496.0,496.0,496.0,496.0,496.0,496.0,496.0,558.0,558.0,558.0,558.0,558.0,558.0,558.0,558.0,558.0,514.0,514.0,514.0,514.0,514.0,514.0,514.0,514.0,514.0,514.0,514.0
0,456.0,496.0,514.0,500,500,500,44.0,41.0,44.0,481.93333333333334,498.8666666666667,522.6,486.0,520.0,548.0,486.0,486.0,486.0,486.0,486.0,486.0,486.0,486.0,486.0,486.0,486.0,486.0,486.0,486.0,486.0,456.0,456.0,456.0,456.0,456.0,496.0,496.0,496.0,496.0,496.0,496.0,496.0,496.0,496.0,496.0,496.0,496.0,496.0,496.0,496.0,520.0,520.0,520.0,520.0,520.0,514.0,514.0,514.0,514.0,514.0,514.0,514.0,514.0,514.0,514.0,514.0,514.0,514.0,514.0,514.0,548.0,548.0,548.0,548.0,548.0
0,456.0,496.0,514.0,500,500,500,30.0,24.0,34.0,469.0,509.6,533.2666666666667,486.0,520.0,548.0,486.0,486.0,486.0,456.0,456.0,456.0,456.0,456.0,456.0,456.0,456.0,456.0,456.0,456.0,456.0,456.0,456.0,456.0,456.0,456.0,496.0,496.0,496.0,520.0,520.0,520.0,520.0,520.0,520.0,520.0,520.0,520.0,520.0,520.0,520.0,520.0,520.0,520.0,520.0,520.0,514.0,514.0,514.0,548.0,548.0,548.0,548.0,548.0,548.0,548.0,548.0,548.0,548.0,548.0,548.0,548.0,548.0,548.0,548.0,548.0
0,456.0,507.0,521.0,500,500,500,48.0,13.0,27.0,472.4,518.2333333333333,544.4,504.0,520.0,548.0,456.0,456.0,456.0,456.0,456.0,456.0,456.0,456.0,504.0,504.0,504.0,504.0,504.0,504.0,504.0,504.0,486.0,486.0,486.0,486.0,520.0,520.0,520.0,520.0,520.0,520.0,520.0,520.0,517.0,517.0,517.0,517.0,517.0,517.0,517.0,517.0,507.0,507.0,507.0,507.0,548.0,548.0,548.0,548.0,548.0,548.0,548.0,548.0,542.0,542.0,542.0,542.0,542.0,542.0,542.0,542.0,521.0,521.0,521.0,521.0
0,457.0,489.0,478.0,500,500,500,48.0,31.0,70.0,486.5,509.06666666666666,524.8,504.0,517.0,542.0,504.0,486.0,486.0,486.0,486.0,486.0,486.0,486.0,486.0,486.0,486.0,486.0,486.0,486.0,486.0,486.0,457.0,457.0,457.0,457.0,517.0,507.0,507.0,507.0,507.0,507.0,507.0,507.0,507.0,507.0,507.0,507.0,507.0,507.0,507.0,507.0,489.0,489.0,489.0,489.0,542.0,521.0,521.0,521.0,521.0,521.0,521.0,521.0,521.0,521.0,521.0,521.0,521.0,521.0,521.0,521.0,478.0,478.0,478.0,478.0
0,427.0,489.0,478.0,500,500,500,59.0,18.0,43.0,453.8,495.6,491.1,457.0,499.0,493.0,457.0,457.0,457.0,457.0,457.0,457.0,457.0,457.0,427.0,427.0,427.0,427.0,427.0,427.0,427.0,427.0,427.0,427.0,427.0,427.0,489.0,489.0,489.0,489.0,489.0,489.0,489.0,489.0,499.0,499.0,499.0,499.0,499.0,499.0,499.0,499.0,499.0,499.0,499.0,499.0,478.0,478.0,478.0,478.0,478.0,478.0,478.0,478.0,493.0,493.0,493.0,493.0,493.0,493.0,493.0,493.0,493.0,493.0,493.0,493.0
0,413.0,499.0,493.0,500,500,500,44.0,53.0,123.0,430.06666666666666,500.53333333333336,498.2,427.0,542.0,601.0,427.0,427.0,427.0,427.0,427.0,427.0,427.0,427.0,427.0,427.0,427.0,427.0,427.0,427.0,427.0,427.0,427.0,427.0,413.0,413.0,499.0,499.0,499.0,499.0,499.0,499.0,499.0,499.0,499.0,499.0,499.0,499.0,499.0,499.0,499.0,499.0,499.0,499.0,542.0,542.0,493.0,493.0,493.0,493.0,493.0,493.0,493.0,493.0,493.0,493.0,493.0,493.0,493.0,493.0,493.0,493.0,493.0,493.0,601.0,601.0
0,413.0,419.0,538.0,500,500,500,40.0,123.0,108.0,428.73333333333335,493.6333333333333,553.3,453.0,542.0,601.0,413.0,413.0,413.0,413.0,413.0,413.0,413.0,413.0,413.0,453.0,453.0,453.0,453.0,453.0,453.0,453.0,453.0,453.0,453.0,453.0,542.0,542.0,542.0,542.0,542.0,542.0,542.0,542.0,542.0,419.0,419.0,419.0,419.0,419.0,419.0,419.0,419.0,419.0,419.0,419.0,601.0,601.0,601.0,601.0,601.0,601.0,601.0,601.0,601.0,538.0,538.0,538.0,538.0,538.0,538.0,538.0,538.0,538.0,538.0,538.0
0,453.0,395.0,500.0,500,500,500,122.0,147.0,101.0,472.26666666666665,435.06666666666666,530.7333333333333,535.0,514.0,538.0,453.0,453.0,453.0,453.0,453.0,453.0,453.0,453.0,453.0,453.0,508.0,508.0,508.0,508.0,508.0,508.0,535.0,535.0,535.0,535.0,419.0,419.0,419.0,419.0,419.0,419.0,419.0,419.0,419.0,419.0,395.0,395.0,395.0,395.0,395.0,395.0,514.0,514.0,514.0,514.0,538.0,538.0,538.0,538.0,538.0,538.0,538.0,538.0,538.0,538.0,500.0,500.0,500.0,500.0,500.0,500.0,509.0,509.0,509.0,509.0
0,508.0,395.0,500.0,500,500,500,89.0,146.0,38.0,510.93333333333334,469.8333333333333,515.3,542.0,541.0,529.0,508.0,508.0,508.0,535.0,535.0,535.0,535.0,535.0,535.0,535.0,535.0,535.0,535.0,535.0,535.0,535.0,535.0,535.0,542.0,542.0,395.0,395.0,395.0,514.0,514.0,514.0,514.0,514.0,514.0,514.0,514.0,514.0,514.0,514.0,514.0,514.0,514.0,514.0,541.0,541.0,500.0,500.0,500.0,509.0,509.0,509.0,509.0,509.0,509.0,509.0,509.0,509.0,509.0,509.0,509.0,509.0,509.0,509.0,529.0,529.0
0,516.0,541.0,513.0,500,500,500,26.0,45.0,20.0,533.9,541.3,521.4,542.0,559.0,529.0,542.0,542.0,542.0,542.0,542.0,542.0,542.0,542.0,542.0,542.0,542.0,542.0,516.0,516.0,516.0,516.0,516.0,516.0,516.0,516.0,541.0,541.0,541.0,541.0,541.0,541.0,541.0,541.0,541.0,541.0,541.0,541.0,559.0,559.0,559.0,559.0,559.0,559.0,559.0,559.0,529.0,529.0,529.0,529.0,529.0,529.0,529.0,529.0,529.0,529.0,529.0,529.0,513.0,513.0,513.0,513.0,513.0,513.0,513.0,513.0
0,546.0,559.0,520.0,500,500,500,82.0,27.0,14.0,561.2666666666667,565.3,521.1666666666666,598.0,586.0,527.0,546.0,546.0,546.0,546.0,546.0,546.0,598.0,598.0,598.0,598.0,598.0,598.0,598.0,598.0,598.0,598.0,598.0,598.0,598.0,598.0,586.0,586.0,586.0,586.0,586.0,586.0,559.0,559.0,559.0,559.0,559.0,559.0,559.0,559.0,559.0,559.0,559.0,559.0,559.0,559.0,520.0,520.0,520.0,520.0,520.0,520.0,527.0,527.0,527.0,527.0,527.0,527.0,527.0,527.0,527.0,527.0,527.0,527.0,527.0,527.0
0,518.0,559.0,511.0,500,500,500,80.0,22.0,16.0,587.3333333333334,561.9333333333333,524.8666666666667,598.0,581.0,527.0,598.0,598.0,598.0,598.0,598.0,598.0,598.0,598.0,598.0,598.0,598.0,598.0,598.0,598.0,598.0,598.0,518.0,518.0,518.0,518.0,559.0,559.0,559.0,559.0,559.0,559.0,559.0,559.0,559.0,559.0,559.0,559.0,559.0,559.0,559.0,559.0,581.0,581.0,581.0,581.0,527.0,527.0,527.0,527.0,527.0,527.0,527.0,527.0,527.0,527.0,527.0,527.0,527.0,527.0,527.0,527.0,511.0,511.0,511.0,511.0
0,512.0,452.0,511.0,500,500,500,6.0,129.0,2.0,516.4,542.3,511.6,518.0,581.0,513.0,518.0,518.0,518.0,518.0,518.0,518.0,518.0,518.0,518.0,512.0,512.0,512.0,512.0,512.0,512.0,512.0,512.0,512.0,512.0,512.0,581.0,581.0,581.0,581.0,581.0,581.0,581.0,581.0,581.0,452.0,452.0,452.0,452.0,452.0,452.0,452.0,452.0,452.0,452.0,452.0,511.0,511.0,511.0,511.0,511.0,511.0,511.0,511.0,511.0,513.0,513.0,513.0,513.0,513.0,513.0,513.0,513.0,513.0,513.0,513.0
0,510.0,452.0,502.0,500,500,500,8.0,148.0,11.0,512.3666666666667,521.9,511.1,512.0,600.0,513.0,512.0,512.0,512.0,512.0,512.0,512.0,512.0,512.0,512.0,512.0,510.0,510.0,510.0,510.0,510.0,510.0,510.0,510.0,511.0,511.0,452.0,452.0,452.0,452.0,452.0,452.0,452.0,452.0,452.0,452.0,600.0,600.0,600.0,600.0,600.0,600.0,600.0,600.0,572.0,572.0,513.0,513.0,513.0,513.0,513.0,513.0,513.0,513.0,513.0,513.0,509.0,509.0,509.0,509.0,509.0,509.0,509.0,509.0,502.0,502.0
0,510.0,572.0,502.0,500,500,500,2.0,148.0,11.0,511.03333333333336,540.4,507.76666666666665,511.0,600.0,509.0,510.0,510.0,510.0,510.0,510.0,510.0,511.0,511.0,511.0,511.0,511.0,511.0,511.0,511.0,511.0,505.0,505.0,505.0,505.0,505.0,600.0,600.0,600.0,600.0,600.0,600.0,572.0,572.0,572.0,572.0,572.0,572.0,572.0,572.0,572.0,563.0,563.0,563.0,563.0,563.0,509.0,509.0,509.0,509.0,509.0,509.0,502.0,502.0,502.0,502.0,502.0,502.0,502.0,502.0,502.0,504.0,504.0,504.0,504.0,504.0
0,504.0,471.0,504.0,500,500,500,1.0,92.0,3.0,504.43333333333334,510.8666666666667,505.7,505.0,563.0,507.0,505.0,505.0,505.0,504.0,504.0,504.0,504.0,504.0,504.0,504.0,504.0,504.0,504.0,504.0,504.0,504.0,504.0,504.0,504.0,504.0,563.0,563.0,563.0,471.0,471.0,471.0,471.0,471.0,471.0,471.0,471.0,471.0,471.0,471.0,471.0,471.0,471.0,471.0,471.0,471.0,504.0,504.0,504.0,507.0,507.0,507.0,507.0,507.0,507.0,507.0,507.0,507.0,507.0,507.0,507.0,507.0,507.0,507.0,507.0,507.0
0,504.0,471.0,507.0,500,500,500,12.0,50.0,1.0,504.8,474.3333333333333,507.06666666666666,516.0,521.0,508.0,504.0,504.0,504.0,504.0,504.0,504.0,504.0,504.0,504.0,504.0,504.0,504.0,504.0,504.0,504.0,516.0,516.0,516.0,516.0,516.0,471.0,471.0,471.0,471.0,471.0,471.0,471.0,471.0,471.0,471.0,471.0,471.0,471.0,471.0,471.0,521.0,521.0,521.0,521.0,521.0,507.0,507.0,507.0,507.0,507.0,507.0,507.0,507.0,507.0,507.0,507.0,507.0,507.0,507.0,507.0,508.0,508.0,508.0,508.0,508.0
0,514.0,500.0,508.0,500,500,500,12.0,50.0,15.0,514.2,509.7,512.1,516.0,521.0,522.0,516.0,516.0,516.0,516.0,516.0,516.0,516.0,516.0,516.0,516.0,516.0,514.0,514.0,514.0,514.0,514.0,514.0,514.0,514.0,514.0,521.0,521.0,521.0,521.0,521.0,521.0,521.0,521.0,521.0,521.0,521.0,500.0,500.0,500.0,500.0,500.0,500.0,500.0,500.0,500.0,508.0,508.0,508.0,508.0,508.0,508.0,508.0,508.0,508.0,508.0,508.0,522.0,522.0,522.0,522.0,522.0,522.0,522.0,522.0,522.0
0,512.0,452.0,511.0,500,500,500,6.0,129.0,11.0,513.2,479.8,516.4666666666667,518.0,581.0,522.0,514.0,514.0,518.0,518.0,512.0,512.0,512.0,512.0,512.0,512.0,512.0,512.0,512.0,512.0,512.0,512.0,512.0,512.0,512.0,512.0,500.0,500.0,581.0,581.0,452.0,452.0,452.0,452.0,452.0,452.0,452.0,452.0,452.0,452.0,452.0,452.0,452.0,452.0,452.0,452.0,522.0,522.0,511.0,511.0,513.0,513.0,513.0,513.0,513.0,513.0,513.0,513.0,513.0,513.0,513.0,513.0,513.0,513.0,513.0,513.0
0,505.0,452.0,502.0,500,500,500,7.0,148.0,11.0,510.96666666666664,533.3,507.5,512.0,600.0,509.0,510.0,510.0,510.0,510.0,510.0,511.0,511.0,511.0,511.0,511.0,511.0,511.0,511.0,511.0,511.0,511.0,505.0,505.0,505.0,505.0,600.0,600.0,600.0,600.0,600.0,572.0,572.0,572.0,572.0,572.0,572.0,572.0,572.0,572.0,572.0,572.0,563.0,563.0,563.0,563.0,509.0,509.0,509.0,509.0,509.0,502.0,502.0,502.0,502.0,502.0,502.0,502.0,502.0,502.0,502.0,502.0,504.0,504.0,504.0,504.0
0,504.0,471.0,504.0,500,500,500,7.0,101.0,5.0,505.8666666666667,552.2333333333333,504.06666666666666,505.0,563.0,507.0,505.0,505.0,505.0,505.0,505.0,505.0,505.0,505.0,505.0,505.0,505.0,505.0,505.0,505.0,504.0,504.0,504.0,504.0,504.0,504.0,563.0,563.0,563.0,563.0,563.0,563.0,563.0,563.0,563.0,563.0,563.0,563.0,563.0,563.0,471.0,471.0,471.0,471.0,471.0,471.0,504.0,504.0,504.0,504.0,504.0,504.0,504.0,504.0,504.0,504.0,504.0,504.0,504.0,504.0,507.0,507.0,507.0,507.0,507.0,507.0
0,486.0,464.0,502.0,500,500,500,19.0,99.0,5.0,503.1666666666667,504.26666666666665,505.56666666666666,505.0,563.0,507.0,505.0,504.0,504.0,504.0,504.0,504.0,504.0,504.0,504.0,504.0,504.0,504.0,504.0,504.0,504.0,504.0,504.0,504.0,486.0,486.0,563.0,471.0,471.0,471.0,471.0,471.0,471.0,471.0,471.0,471.0,471.0,471.0,471.0,471.0,471.0,471.0,471.0,471.0,464.0,464.0,504.0,507.0,507.0,507.0,507.0,507.0,507.0,507.0,507.0,507.0,507.0,507.0,507.0,507.0,507.0,507.0,507.0,507.0,502.0,502.0
0,486.0,464.0,502.0,500,500,500,18.0,10.0,5.0,488.23333333333335,469.03333333333336,502.5,487.0,474.0,502.0,486.0,486.0,486.0,486.0,486.0,486.0,486.0,487.0,487.0,487.0,487.0,487.0,487.0,487.0,487.0,487.0,487.0,487.0,487.0,487.0,464.0,464.0,464.0,464.0,464.0,464.0,464.0,474.0,474.0,474.0,474.0,474.0,474.0,474.0,474.0,474.0,474.0,474.0,474.0,474.0,502.0,502.0,502.0,502.0,502.0,502.0,502.0,502.0,502.0,502.0,502.0,502.0,502.0,502.0,502.0,502.0,502.0,502.0,502.0,502.0
0,487.0,424.0,502.0,500,500,500,10.0,50.0,5.0,489.6666666666667,460.8,503.26666666666665,496.0,474.0,507.0,487.0,487.0,487.0,487.0,487.0,487.0,487.0,487.0,487.0,487.0,495.0,495.0,495.0,495.0,495.0,495.0,496.0,496.0,496.0,496.0,474.0,474.0,474.0,474.0,474.0,474.0,474.0,474.0,474.0,474.0,448.0,448.0,448.0,448.0,448.0,448.0,424.0,424.0,424.0,424.0,502.0,502.0,502.0,502.0,502.0,502.0,502.0,502.0,502.0,502.0,507.0,507.0,507.0,507.0,507.0,507.0,504.0,504.0,504.0,504.0
0,495.0,424.0,504.0,500,500,500,10.0,50.0,6.0,494.1333333333333,440.26666666666665,504.73333333333335,497.0,448.0,508.0,495.0,495.0,496.0,496.0,496.0,496.0,496.0,496.0,496.0,496.0,496.0,496.0,496.0,496.0,496.0,497.0,497.0,497.0,497.0,497.0,448.0,448.0,424.0,424.0,424.0,424.0,424.0,424.0,424.0,424.0,424.0,424.0,424.0,424.0,424.0,435.0,435.0,435.0,435.0,435.0,507.0,507.0,504.0,504.0,504.0,504.0,504.0,504.0,504.0,504.0,504.0,504.0,504.0,504.0,504.0,508.0,508.0,508.0,508.0,508.0
0,497.0,435.0,508.0,500,500,500,9.0,32.0,16.0,498.3,438.1333333333333,509.8666666666667,505.0,456.0,520.0,497.0,497.0,497.0,497.0,497.0,497.0,497.0,497.0,497.0,497.0,497.0,497.0,497.0,497.0,505.0,505.0,505.0,505.0,505.0,505.0,435.0,435.0,435.0,435.0,435.0,435.0,435.0,435.0,435.0,435.0,435.0,435.0,435.0,435.0,456.0,456.0,456.0,456.0,456.0,456.0,508.0,508.0,508.0,508.0,508.0,508.0,508.0,508.0,508.0,508.0,508.0,508.0,508.0,508.0,520.0,520.0,520.0,520.0,520.0,520.0
0,502.0,456.0,518.0,500,500,500,8.0,62.0,12.0,502.6333333333333,457.93333333333334,516.8666666666667,505.0,497.0,520.0,505.0,505.0,505.0,505.0,505.0,505.0,505.0,505.0,505.0,505.0,505.0,505.0,505.0,505.0,502.0,502.0,502.0,502.0,502.0,502.0,456.0,456.0,456.0,456.0,456.0,456.0,456.0,456.0,456.0,456.0,456.0,456.0,456.0,456.0,497.0,497.0,497.0,497.0,497.0,497.0,520.0,520.0,520.0,520.0,520.0,520.0,520.0,520.0,520.0,520.0,520.0,520.0,520.0,520.0,518.0,518.0,518.0,518.0,518.0,518.0
0,502.0,497.0,518.0,500,500,500,3.0,51.0,5.0,502.53333333333336,495.93333333333334,518.9666666666667,504.0,507.0,523.0,502.0,502.0,502.0,502.0,502.0,502.0,502.0,502.0,502.0,502.0,502.0,502.0,502.0,504.0,504.0,504.0,504.0,504.0,504.0,504.0,497.0,497.0,497.0,497.0,497.0,497.0,497.0,497.0,497.0,497.0,497.0,497.0,497.0,507.0,507.0,507.0,507.0,507.0,507.0,507.0,518.0,518.0,518.0,518.0,518.0,518.0,518.0,518.0,518.0,518.0,518.0,518.0,518.0,523.0,523.0,523.0,523.0,523.0,523.0,523.0
0,504.0,495.0,512.0,500,500,500,4.0,12.0,11.0,505.73333333333335,501.8,518.2333333333333,508.0,507.0,523.0,504.0,504.0,504.0,504.0,504.0,508.0,508.0,508.0,508.0,508.0,508.0,508.0,508.0,508.0,508.0,508.0,508.0,508.0,508.0,508.0,507.0,507.0,507.0,507.0,507.0,495.0,495.0,495.0,495.0,495.0,495.0,495.0,495.0,495.0,495.0,495.0,495.0,495.0,495.0,495.0,523.0,523.0,523.0,523.0,523.0,512.0,512.0,512.0,512.0,512.0,512.0,512.0,512.0,512.0,512.0,512.0,512.0,512.0,512.0,512.0
0,508.0,487.0,508.0,500,500,500,4.0,8.0,19.0,510.1666666666667,490.96666666666664,511.6333333333333,512.0,495.0,527.0,508.0,508.0,511.0,511.0,511.0,512.0,512.0,512.0,512.0,512.0,512.0,512.0,512.0,512.0,512.0,512.0,512.0,512.0,512.0,512.0,495.0,495.0,492.0,492.0,492.0,487.0,487.0,487.0,487.0,487.0,487.0,487.0,487.0,487.0,487.0,487.0,487.0,487.0,487.0,487.0,512.0,512.0,527.0,527.0,508.0,508.0,508.0,508.0,508.0,508.0,508.0,508.0,508.0,508.0,508.0,508.0,508.0,508.0,508.0,508.0
0,509.0,487.0,497.0,500,500,500,9.0,10.0,22.0,512.0,492.0,506.1666666666667,518.0,497.0,519.0,512.0,512.0,512.0,512.0,512.0,509.0,509.0,509.0,509.0,509.0,509.0,509.0,509.0,509.0,509.0,518.0,518.0,518.0,518.0,518.0,487.0,487.0,487.0,487.0,487.0,497.0,497.0,497.0,497.0,497.0,497.0,497.0,497.0,497.0,497.0,497.0,497.0,497.0,497.0,497.0,508.0,508.0,508.0,508.0,508.0,497.0,497.0,497.0,497.0,497.0,497.0,497.0,497.0,497.0,497.0,519.0,519.0,519.0,519.0,519.0
0,518.0,493.0,518.0,500,500,500,0.0,4.0,1.0,518.0,495.1333333333333,518.5333333333333,518.0,497.0,519.0,518.0,518.0,518.0,518.0,518.0,518.0,518.0,518.0,518.0,518.0,518.0,518.0,518.0,518.0,518.0,518.0,518.0,518.0,518.0,506.0,497.0,497.0,497.0,497.0,493.0,493.0,493.0,493.0,493.0,493.0,493.0,493.0,493.0,493.0,493.0,493.0,493.0,493.0,493.0,492.0,519.0,519.0,519.0,519.0,518.0,518.0,518.0,518.0,518.0,518.0,518.0,518.0,518.0,518.0,518.0,518.0,518.0,518.0,518.0,509.0
0,506.0,483.0,505.0,500,500,500,12.0,10.0,13.0,513.0,490.3666666666667,512.2666666666667,518.0,493.0,518.0,518.0,518.0,506.0,506.0,506.0,506.0,506.0,506.0,506.0,512.0,512.0,512.0,512.0,512.0,512.0,512.0,512.0,512.0,512.0,512.0,493.0,493.0,492.0,492.0,492.0,492.0,492.0,492.0,492.0,483.0,483.0,483.0,483.0,483.0,483.0,483.0,483.0,483.0,483.0,483.0,518.0,518.0,509.0,509.0,509.0,509.0,509.0,509.0,509.0,505.0,505.0,505.0,505.0,505.0,505.0,505.0,505.0,505.0,505.0,505.0
0,502.0,483.0,488.0,500,500,500,10.0,1.0,17.0,511.3333333333333,483.06666666666666,503.8666666666667,512.0,484.0,505.0,512.0,512.0,512.0,512.0,512.0,512.0,512.0,512.0,512.0,512.0,512.0,512.0,512.0,512.0,512.0,512.0,512.0,512.0,502.0,502.0,483.0,483.0,483.0,483.0,483.0,483.0,483.0,483.0,483.0,483.0,483.0,483.0,483.0,483.0,483.0,483.0,483.0,483.0,484.0,484.0,505.0,505.0,505.0,505.0,505.0,505.0,505.0,505.0,505.0,505.0,505.0,505.0,505.0,505.0,505.0,505.0,505.0,505.0,488.0,488.0
0,498.0,483.0,488.0,500,500,500,14.0,30.0,32.0,507.26666666666665,486.3333333333333,500.8333333333333,512.0,513.0,520.0,512.0,512.0,512.0,512.0,512.0,502.0,502.0,502.0,502.0,502.0,502.0,502.0,502.0,502.0,498.0,498.0,498.0,498.0,498.0,498.0,483.0,483.0,483.0,483.0,483.0,484.0,484.0,484.0,484.0,484.0,484.0,484.0,484.0,484.0,513.0,513.0,513.0,513.0,513.0,513.0,505.0,505.0,505.0,505.0,505.0,488.0,488.0,488.0,488.0,488.0,488.0,488.0,488.0,488.0,520.0,520.0,520.0,520.0,520.0,520.0
0,497.0,513.0,506.0,500,500,500,5.0,42.0,32.0,497.8333333333333,515.9333333333333,514.7333333333333,498.0,526.0,520.0,498.0,498.0,498.0,498.0,498.0,498.0,498.0,498.0,498.0,498.0,498.0,497.0,497.0,497.0,497.0,497.0,497.0,497.0,497.0,497.0,513.0,513.0,513.0,513.0,513.0,513.0,513.0,513.0,513.0,513.0,513.0,526.0,526.0,526.0,526.0,526.0,526.0,526.0,526.0,526.0,520.0,520.0,520.0,520.0,520.0,520.0,520.0,520.0,520.0,520.0,520.0,506.0,506.0,506.0,506.0,506.0,506.0,506.0,506.0,506.0
0,495.0,526.0,483.0,500,500,500,3.0,15.0,37.0,496.7,525.1,502.8,497.0,528.0,506.0,497.0,497.0,497.0,497.0,497.0,497.0,497.0,497.0,497.0,497.0,497.0,497.0,497.0,495.0,495.0,495.0,495.0,495.0,495.0,495.0,526.0,526.0,526.0,526.0,526.0,526.0,526.0,526.0,526.0,526.0,526.0,526.0,526.0,528.0,528.0,528.0,528.0,528.0,528.0,528.0,506.0,506.0,506.0,506.0,506.0,506.0,506.0,506.0,506.0,506.0,506.0,506.0,506.0,483.0,483.0,483.0,483.0,483.0,483.0,483.0
0,495.0,528.0,483.0,500,500,500,7.0,89.0,23.0,496.96666666666664,547.9666666666667,487.3,502.0,615.0,485.0,495.0,495.0,495.0,495.0,495.0,495.0,495.0,495.0,495.0,495.0,495.0,495.0,495.0,502.0,502.0,502.0,502.0,502.0,502.0,502.0,528.0,528.0,528.0,528.0,528.0,528.0,528.0,528.0,528.0,528.0,528.0,528.0,528.0,615.0,615.0,615.0,615.0,615.0,615.0,615.0,483.0,483.0,483.0,483.0,483.0,483.0,483.0,483.0,483.0,483.0,483.0,483.0,483.0,485.0,485.0,485.0,485.0,485.0,485.0,485.0
0,498.0,615.0,485.0,500,500,500,7.0,114.0,16.0,499.76666666666665,607.7,488.4,502.0,642.0,499.0,502.0,502.0,502.0,502.0,502.0,502.0,502.0,502.0,502.0,502.0,502.0,502.0,498.0,498.0,498.0,498.0,498.0,498.0,498.0,498.0,615.0,615.0,615.0,615.0,615.0,615.0,615.0,615.0,615.0,615.0,615.0,615.0,642.0,642.0,642.0,642.0,642.0,642.0,642.0,642.0,485.0,485.0,485.0,485.0,485.0,485.0,485.0,485.0,485.0,485.0,485.0,485.0,499.0,499.0,499.0,499.0,499.0,499.0,499.0,499.0
0,489.0,499.0,496.0,500,500,500,13.0,143.0,14.0,496.1333333333333,600.2666666666667,496.3333333333333,498.0,642.0,499.0,498.0,498.0,498.0,498.0,498.0,498.0,498.0,498.0,498.0,498.0,498.0,498.0,489.0,489.0,489.0,489.0,489.0,489.0,489.0,489.0,642.0,642.0,642.0,642.0,642.0,642.0,642.0,642.0,642.0,642.0,642.0,642.0,499.0,499.0,499.0,499.0,499.0,499.0,499.0,499.0,499.0,499.0,499.0,499.0,499.0,499.0,499.0,499.0,499.0,499.0,499.0,499.0,496.0,496.0,496.0,496.0,496.0,496.0,496.0,496.0
0,489.0,499.0,496.0,500,500,500,15.0,143.0,3.0,492.5,535.1,496.5,504.0,591.0,496.0,489.0,489.0,489.0,489.0,489.0,489.0,489.0,489.0,489.0,489.0,489.0,489.0,489.0,489.0,489.0,489.0,504.0,504.0,504.0,504.0,499.0,499.0,499.0,499.0,499.0,499.0,499.0,499.0,499.0,499.0,499.0,499.0,499.0,499.0,499.0,499.0,591.0,591.0,591.0,591.0,496.0,496.0,496.0,496.0,496.0,496.0,496.0,496.0,496.0,496.0,496.0,496.0,496.0,496.0,496.0,496.0,496.0,496.0,496.0,496.0
