iter	Passed	Remaining
0	10	13099
1	18	11310
2	27	11055
3	35	10763
4	43	10473
5	51	10346
6	59	10189
7	67	10062
8	75	9992
9	83	9949
10	91	9903
11	99	9850
12	108	9871
13	116	9839
14	124	9830
15	132	9833
16	140	9790
17	148	9746
18	156	9714
19	164	9715
20	172	9690
21	180	9663
22	192	9856
23	200	9826
24	209	9825
25	218	9852
26	227	9887
27	236	9904
28	245	9916
29	254	9940
30	262	9904
31	273	9984
32	282	9978
33	290	9970
34	298	9939
35	306	9912
36	314	9891
37	323	9886
38	332	9897
39	340	9867
40	348	9841
41	355	9812
42	363	9785
43	371	9767
44	380	9764
45	388	9751
46	396	9731
47	409	9822
48	419	9845
49	429	9868
50	440	9919
51	450	9945
52	459	9952
53	473	10039
54	481	10021
55	490	10023
56	499	10019
57	508	10003
58	517	10006
59	525	9991
60	534	9971
61	542	9955
62	552	9963
63	563	10002
64	572	9992
65	580	9967
66	587	9942
67	595	9919
68	604	9902
69	613	9902
70	624	9927
71	634	9932
72	642	9913
73	652	9930
74	662	9931
75	669	9908
76	677	9886
77	685	9862
78	693	9839
79	701	9816
80	709	9796
81	717	9788
82	725	9767
83	734	9752
84	741	9732
85	749	9711
86	757	9692
87	765	9676
88	773	9657
89	781	9637
90	789	9620
91	797	9601
92	804	9581
93	814	9581
94	823	9580
95	831	9566
96	841	9563
97	850	9560
98	859	9554
99	867	9545
100	875	9527
101	883	9509
102	891	9491
103	899	9474
104	906	9455
105	915	9452
106	924	9441
107	934	9445
108	942	9433
109	954	9453
110	962	9444
111	972	9451
112	981	9445
113	990	9437
114	998	9424
115	1007	9410
116	1017	9417
117	1026	9414
118	1035	9410
119	1044	9400
120	1055	9408
121	1063	9394
122	1072	9389
123	1080	9378
124	1089	9372
125	1099	9368
126	1109	9376
127	1118	9366
128	1126	9349
129	1135	9343
130	1142	9326
131	1151	9315
132	1158	9297
133	1167	9290
134	1175	9273
135	1184	9263
136	1192	9249
137	1200	9242
138	1209	9232
139	1219	9235
140	1228	9225
141	1239	9233
142	1249	9235
143	1257	9219
144	1266	9213
145	1274	9199
146	1283	9190
147	1292	9184
148	1300	9170
149	1308	9162
150	1316	9147
151	1325	9137
152	1333	9123
153	1342	9117
154	1349	9101
155	1358	9091
156	1366	9076
157	1374	9067
158	1382	9052
159	1391	9042
160	1399	9029
161	1408	9024
162	1416	9014
163	1425	9007
164	1434	9000
165	1444	8997
166	1454	8997
167	1463	8988
168	1471	8979
169	1479	8964
170	1488	8956
171	1496	8943
172	1507	8947
173	1514	8933
174	1523	8923
175	1531	8910
176	1539	8900
177	1547	8887
178	1556	8878
179	1564	8866
180	1573	8856
181	1580	8842
182	1589	8836
183	1600	8837
184	1608	8826
185	1617	8817
186	1626	8809
187	1635	8803
188	1644	8795
189	1652	8785
190	1660	8772
191	1669	8763
192	1676	8749
193	1685	8740
194	1693	8729
195	1703	8726
196	1711	8713
197	1719	8703
198	1727	8690
199	1737	8685
200	1745	8673
201	1754	8666
202	1761	8652
203	1769	8639
204	1777	8627
205	1785	8613
206	1792	8600
207	1803	8603
208	1811	8590
209	1820	8580
210	1827	8567
211	1836	8556
212	1844	8547
213	1853	8541
214	1861	8529
215	1869	8516
216	1877	8503
217	1885	8491
218	1894	8484
219	1902	8475
220	1910	8462
221	1918	8450
222	1926	8438
223	1933	8426
224	1941	8414
225	1949	8401
226	1957	8390
227	1965	8377
228	1972	8365
229	1980	8352
230	1989	8344
231	1993	8319
232	2001	8307
233	2009	8295
234	2017	8286
235	2028	8284
236	2036	8274
237	2044	8265
238	2052	8253
239	2060	8243
240	2068	8230
241	2076	8218
242	2083	8206
243	2092	8199
244	2100	8188
245	2108	8176
246	2116	8165
247	2124	8155
248	2132	8144
249	2139	8131
250	2147	8120
251	2155	8108
252	2162	8095
253	2171	8085
254	2178	8073
255	2187	8065
256	2195	8054
257	2202	8042
258	2210	8030
259	2218	8022
260	2227	8012
261	2235	8003
262	2244	7996
263	2252	7986
264	2260	7974
265	2264	7950
266	2268	7927
267	2276	7916
268	2285	7911
269	2293	7900
270	2301	7889
271	2309	7878
272	2317	7867
273	2324	7857
274	2332	7845
275	2340	7835
276	2348	7824
277	2355	7813
278	2363	7802
279	2371	7793
280	2379	7783
281	2388	7775
282	2396	7764
283	2403	7753
284	2411	7742
285	2420	7735
286	2428	7726
287	2438	7721
288	2446	7713
289	2455	7703
290	2462	7693
291	2470	7683
292	2481	7680
293	2489	7671
294	2497	7660
295	2504	7649
296	2513	7641
297	2522	7634
298	2532	7631
299	2541	7623
300	2550	7617
301	2558	7608
302	2567	7600
303	2575	7592
304	2584	7583
305	2592	7573
306	2599	7562
307	2607	7551
308	2615	7540
309	2624	7535
310	2633	7528
311	2642	7522
312	2650	7511
313	2658	7502
314	2666	7492
315	2676	7486
316	2684	7476
317	2691	7466
318	2699	7455
319	2707	7444
320	2714	7434
321	2722	7423
322	2730	7412
323	2737	7402
324	2745	7392
325	2753	7382
326	2760	7371
327	2769	7361
328	2779	7358
329	2788	7350
330	2796	7341
331	2804	7331
332	2811	7321
333	2820	7312
334	2828	7302
335	2836	7294
336	2845	7286
337	2853	7277
338	2861	7266
339	2870	7261
340	2879	7252
341	2887	7243
342	2894	7232
343	2902	7222
344	2910	7213
345	2918	7203
346	2926	7193
347	2934	7184
348	2942	7174
349	2949	7163
350	2957	7153
351	2967	7149
352	2975	7139
353	2983	7129
354	2991	7119
355	2998	7108
356	3006	7099
357	3014	7089
358	3022	7081
359	3030	7072
360	3039	7064
361	3048	7055
362	3055	7045
363	3064	7037
364	3072	7028
365	3080	7018
366	3087	7008
367	3095	6998
368	3102	6987
369	3110	6977
370	3118	6967
371	3125	6957
372	3134	6948
373	3141	6938
374	3149	6928
375	3156	6918
376	3165	6910
377	3173	6901
378	3181	6891
379	3189	6882
380	3197	6872
381	3205	6863
382	3212	6853
383	3221	6844
384	3228	6835
385	3237	6826
386	3246	6820
387	3254	6810
388	3263	6804
389	3271	6794
390	3279	6785
391	3287	6775
392	3294	6765
393	3302	6756
394	3310	6746
395	3318	6736
396	3325	6726
397	3333	6717
398	3341	6707
399	3349	6698
400	3357	6690
401	3365	6681
402	3373	6671
403	3381	6662
404	3388	6652
405	3396	6642
406	3404	6633
407	3412	6623
408	3420	6615
409	3428	6606
410	3437	6598
411	3445	6590
412	3455	6583
413	3463	6574
414	3470	6565
415	3478	6555
416	3486	6546
417	3494	6536
418	3502	6527
419	3510	6518
420	3517	6509
421	3525	6499
422	3533	6489
423	3540	6480
424	3549	6471
425	3557	6463
426	3565	6453
427	3572	6444
428	3580	6434
429	3588	6425
430	3595	6415
431	3603	6406
432	3611	6397
433	3620	6390
434	3629	6382
435	3637	6374
436	3648	6369
437	3656	6360
438	3664	6351
439	3672	6343
440	3680	6333
441	3687	6323
442	3695	6314
443	3702	6304
444	3710	6294
445	3717	6285
446	3725	6276
447	3733	6267
448	3741	6258
449	3750	6250
450	3757	6240
451	3765	6231
452	3773	6221
453	3781	6213
454	3789	6204
455	3796	6194
456	3804	6185
457	3811	6175
458	3821	6168
459	3829	6161
460	3838	6154
461	3847	6146
462	3856	6138
463	3863	6128
464	3871	6119
465	3879	6111
466	3887	6101
467	3895	6092
468	3903	6083
469	3910	6073
470	3918	6064
471	3926	6055
472	3934	6046
473	3943	6039
474	3951	6031
475	3958	6021
476	3966	6012
477	3974	6003
478	3982	5994
479	3990	5986
480	3998	5976
481	4006	5967
482	4013	5958
483	4022	5951
484	4031	5943
485	4040	5936
486	4048	5927
487	4055	5917
488	4063	5908
489	4071	5899
490	4079	5890
491	4087	5881
492	4094	5872
493	4102	5862
494	4110	5853
495	4118	5844
496	4125	5835
497	4136	5830
498	4144	5821
499	4151	5812
500	4159	5803
501	4167	5794
502	4175	5786
503	4183	5776
504	4191	5768
505	4198	5758
506	4206	5749
507	4214	5740
508	4222	5732
509	4233	5727
510	4241	5718
511	4249	5710
512	4257	5701
513	4265	5692
514	4273	5684
515	4281	5675
516	4288	5665
517	4296	5657
518	4304	5648
519	4312	5638
520	4319	5629
521	4328	5621
522	4336	5613
523	4344	5604
524	4352	5595
525	4359	5586
526	4367	5577
527	4374	5568
528	4382	5558
529	4390	5549
530	4398	5541
531	4405	5532
532	4413	5523
533	4424	5517
534	4433	5510
535	4441	5502
536	4449	5493
537	4457	5484
538	4465	5476
539	4473	5467
540	4480	5457
541	4488	5449
542	4496	5440
543	4504	5431
544	4512	5422
545	4519	5414
546	4527	5405
547	4535	5396
548	4543	5387
549	4550	5378
550	4558	5369
551	4566	5360
552	4574	5351
553	4582	5343
554	4589	5333
555	4596	5324
556	4604	5315
557	4612	5306
558	4621	5299
559	4630	5291
560	4638	5283
561	4646	5275
562	4654	5266
563	4662	5257
564	4670	5248
565	4677	5239
566	4686	5231
567	4693	5222
568	4701	5213
569	4710	5205
570	4718	5198
571	4726	5189
572	4734	5180
573	4741	5171
574	4749	5162
575	4757	5153
576	4765	5145
577	4773	5136
578	4781	5127
579	4788	5119
580	4796	5110
581	4804	5101
582	4815	5095
583	4824	5088
584	4832	5080
585	4841	5072
586	4849	5064
587	4856	5055
588	4865	5046
589	4872	5037
590	4880	5029
591	4888	5020
592	4895	5011
593	4904	5003
594	4913	4996
595	4921	4987
596	4929	4979
597	4937	4970
598	4944	4961
599	4952	4952
600	4960	4943
601	4968	4935
602	4975	4926
603	4983	4917
604	4991	4908
605	4999	4900
606	5007	4892
607	5015	4883
608	5024	4875
609	5031	4866
610	5042	4860
611	5049	4851
612	5057	4843
613	5065	4834
614	5073	4826
615	5081	4817
616	5088	4808
617	5099	4802
618	5107	4793
619	5114	4784
620	5122	4776
621	5130	4767
622	5138	4759
623	5146	4750
624	5153	4741
625	5161	4732
626	5169	4724
627	5177	4715
628	5185	4706
629	5195	4700
630	5203	4692
631	5211	4683
632	5220	4675
633	5228	4667
634	5236	4659
635	5244	4650
636	5252	4642
637	5260	4633
638	5267	4624
639	5275	4615
640	5283	4607
641	5292	4599
642	5299	4591
643	5307	4582
644	5315	4573
645	5323	4565
646	5331	4556
647	5339	4548
648	5346	4539
649	5354	4530
650	5362	4521
651	5369	4513
652	5377	4504
653	5386	4496
654	5394	4488
655	5402	4479
656	5409	4471
657	5418	4463
658	5427	4455
659	5435	4447
660	5443	4438
661	5451	4430
662	5459	4421
663	5466	4412
664	5474	4404
665	5483	4396
666	5491	4388
667	5498	4379
668	5506	4370
669	5514	4361
670	5521	4353
671	5529	4344
672	5537	4336
673	5545	4327
674	5552	4318
675	5560	4310
676	5568	4301
677	5576	4293
678	5585	4285
679	5593	4277
680	5600	4268
681	5608	4259
682	5617	4252
683	5625	4243
684	5633	4235
685	5643	4228
686	5651	4219
687	5658	4211
688	5666	4202
689	5674	4193
690	5682	4185
691	5690	4177
692	5698	4168
693	5706	4160
694	5713	4151
695	5721	4143
696	5729	4134
697	5737	4126
698	5744	4117
699	5752	4108
700	5760	4100
701	5768	4092
702	5779	4086
703	5787	4077
704	5795	4069
705	5803	4060
706	5812	4052
707	5821	4045
708	5830	4037
709	5838	4029
710	5846	4020
711	5854	4012
712	5861	4003
713	5870	3995
714	5878	3987
715	5886	3978
716	5893	3970
717	5901	3961
718	5909	3953
719	5916	3944
720	5924	3936
721	5932	3927
722	5940	3919
723	5948	3910
724	5955	3902
725	5964	3894
726	5973	3886
727	5980	3877
728	5988	3868
729	5995	3860
730	6004	3852
731	6012	3844
732	6021	3836
733	6029	3827
734	6036	3819
735	6044	3810
736	6052	3802
737	6062	3795
738	6070	3786
739	6078	3778
740	6085	3769
741	6093	3761
742	6101	3753
743	6109	3744
744	6117	3736
745	6125	3727
746	6132	3719
747	6140	3710
748	6148	3702
749	6156	3694
750	6165	3685
751	6173	3677
752	6180	3669
753	6188	3660
754	6196	3652
755	6205	3644
756	6213	3636
757	6222	3628
758	6229	3619
759	6237	3611
760	6245	3602
761	6254	3595
762	6262	3586
763	6270	3578
764	6278	3569
765	6285	3561
766	6293	3552
767	6301	3544
768	6308	3535
769	6316	3527
770	6324	3519
771	6332	3510
772	6339	3502
773	6348	3494
774	6356	3485
775	6364	3477
776	6372	3469
777	6380	3460
778	6388	3452
779	6396	3444
780	6403	3435
781	6413	3428
782	6421	3419
783	6429	3411
784	6436	3402
785	6445	3394
786	6453	3386
787	6461	3378
788	6468	3369
789	6476	3361
790	6483	3352
791	6491	3344
792	6499	3335
793	6506	3327
794	6514	3318
795	6522	3310
796	6530	3301
797	6538	3293
798	6546	3285
799	6555	3277
800	6562	3268
801	6570	3260
802	6578	3252
803	6586	3244
804	6594	3235
805	6602	3227
806	6611	3219
807	6619	3211
808	6627	3203
809	6636	3195
810	6644	3187
811	6652	3178
812	6660	3170
813	6668	3162
814	6675	3153
815	6683	3145
816	6691	3136
817	6699	3128
818	6706	3120
819	6715	3111
820	6722	3103
821	6733	3096
822	6741	3088
823	6749	3079
824	6756	3071
825	6764	3063
826	6772	3054
827	6781	3046
828	6791	3039
829	6799	3031
830	6808	3023
831	6815	3014
832	6825	3007
833	6833	2998
834	6840	2990
835	6848	2981
836	6856	2973
837	6863	2965
838	6872	2957
839	6880	2948
840	6888	2940
841	6895	2931
842	6903	2923
843	6911	2915
844	6921	2907
845	6929	2899
846	6937	2891
847	6945	2882
848	6952	2874
849	6961	2866
850	6968	2858
851	6977	2850
852	6985	2841
853	6995	2834
854	7004	2826
855	7012	2818
856	7020	2809
857	7028	2801
858	7036	2793
859	7043	2784
860	7051	2776
861	7059	2767
862	7066	2759
863	7074	2751
864	7082	2742
865	7089	2734
866	7097	2726
867	7105	2717
868	7113	2709
869	7121	2701
870	7129	2692
871	7137	2684
872	7144	2676
873	7152	2667
874	7160	2659
875	7168	2651
876	7176	2643
877	7188	2636
878	7196	2628
879	7204	2619
880	7213	2612
881	7221	2603
882	7229	2595
883	7236	2586
884	7244	2578
885	7252	2570
886	7260	2562
887	7268	2553
888	7276	2545
889	7284	2537
890	7292	2528
891	7300	2520
892	7309	2512
893	7317	2504
894	7325	2496
895	7332	2487
896	7340	2479
897	7348	2471
898	7356	2462
899	7365	2455
900	7376	2447
901	7384	2439
902	7391	2431
903	7400	2423
904	7408	2414
905	7416	2406
906	7424	2398
907	7431	2389
908	7439	2381
909	7447	2373
910	7454	2364
911	7462	2356
912	7470	2348
913	7478	2340
914	7486	2331
915	7495	2324
916	7503	2315
917	7511	2307
918	7518	2299
919	7526	2290
920	7534	2282
921	7542	2274
922	7549	2265
923	7558	2257
924	7567	2249
925	7575	2241
926	7584	2233
927	7593	2225
928	7601	2217
929	7609	2209
930	7616	2200
931	7624	2192
932	7631	2184
933	7639	2175
934	7647	2167
935	7654	2159
936	7662	2150
937	7672	2143
938	7680	2134
939	7689	2126
940	7698	2118
941	7705	2110
942	7713	2102
943	7721	2094
944	7729	2085
945	7737	2077
946	7745	2069
947	7753	2061
948	7761	2052
949	7769	2044
950	7779	2036
951	7787	2028
952	7795	2020
953	7803	2012
954	7810	2003
955	7818	1995
956	7826	1987
957	7834	1979
958	7842	1970
959	7849	1962
960	7857	1954
961	7865	1945
962	7873	1937
963	7881	1929
964	7889	1921
965	7897	1913
966	7904	1904
967	7912	1896
968	7920	1888
969	7929	1880
970	7937	1872
971	7946	1864
972	7957	1856
973	7965	1848
974	7974	1840
975	7982	1832
976	7990	1823
977	7998	1815
978	8005	1807
979	8013	1799
980	8021	1790
981	8029	1782
982	8037	1774
983	8045	1766
984	8052	1757
985	8060	1749
986	8068	1741
987	8076	1733
988	8084	1724
989	8092	1716
990	8099	1708
991	8107	1699
992	8115	1691
993	8123	1683
994	8131	1675
995	8139	1667
996	8148	1659
997	8157	1651
998	8165	1642
999	8172	1634
1000	8180	1626
1001	8189	1618
1002	8197	1610
1003	8204	1601
1004	8212	1593
1005	8219	1585
1006	8227	1576
1007	8235	1568
1008	8243	1560
1009	8251	1552
1010	8259	1544
1011	8267	1535
1012	8275	1527
1013	8283	1519
1014	8290	1511
1015	8298	1502
1016	8306	1494
1017	8314	1486
1018	8321	1478
1019	8330	1470
1020	8338	1461
1021	8348	1454
1022	8357	1445
1023	8365	1437
1024	8372	1429
1025	8381	1421
1026	8388	1413
1027	8396	1404
1028	8404	1396
1029	8411	1388
1030	8419	1380
1031	8427	1371
1032	8435	1363
1033	8444	1355
1034	8452	1347
1035	8460	1339
1036	8467	1331
1037	8475	1322
1038	8483	1314
1039	8491	1306
1040	8499	1298
1041	8506	1289
1042	8514	1281
1043	8523	1273
1044	8531	1265
1045	8542	1257
1046	8550	1249
1047	8558	1241
1048	8566	1233
1049	8574	1224
1050	8582	1216
1051	8590	1208
1052	8597	1200
1053	8605	1192
1054	8612	1183
1055	8620	1175
1056	8628	1167
1057	8637	1159
1058	8645	1151
1059	8653	1142
1060	8660	1134
1061	8668	1126
1062	8676	1118
1063	8684	1110
1064	8692	1101
1065	8699	1093
1066	8707	1085
1067	8716	1077
1068	8725	1069
1069	8734	1061
1070	8741	1052
1071	8749	1044
1072	8757	1036
1073	8765	1028
1074	8772	1020
1075	8780	1011
1076	8788	1003
1077	8796	995
1078	8803	987
1079	8811	979
1080	8820	970
1081	8828	962
1082	8837	954
1083	8844	946
1084	8852	938
1085	8859	930
1086	8867	921
1087	8875	913
1088	8883	905
1089	8891	897
1090	8898	889
1091	8906	880
1092	8915	872
1093	8925	864
1094	8933	856
1095	8942	848
1096	8949	840
1097	8957	832
1098	8965	823
1099	8973	815
1100	8980	807
1101	8988	799
1102	8996	791
1103	9004	782
1104	9013	774
1105	9021	766
1106	9028	758
1107	9037	750
1108	9044	742
1109	9052	734
1110	9060	725
1111	9068	717
1112	9076	709
1113	9083	701
1114	9091	693
1115	9100	684
1116	9108	676
1117	9120	668
1118	9127	660
1119	9135	652
1120	9143	644
1121	9151	636
1122	9159	628
1123	9167	619
1124	9174	611
1125	9182	603
1126	9189	595
1127	9197	587
1128	9206	578
1129	9213	570
1130	9221	562
1131	9229	554
1132	9237	546
1133	9244	538
1134	9252	529
1135	9260	521
1136	9268	513
1137	9275	505
1138	9283	497
1139	9292	489
1140	9301	480
1141	9309	472
1142	9317	464
1143	9325	456
1144	9333	448
1145	9340	440
1146	9348	431
1147	9356	423
1148	9364	415
1149	9371	407
1150	9379	399
1151	9386	391
1152	9395	382
1153	9403	374
1154	9410	366
1155	9418	358
1156	9425	350
1157	9433	342
1158	9440	333
1159	9448	325
1160	9456	317
1161	9464	309
1162	9471	301
1163	9479	293
1164	9491	285
1165	9499	276
1166	9507	268
1167	9515	260
1168	9522	252
1169	9530	244
1170	9537	236
1171	9545	228
1172	9553	219
1173	9561	211
1174	9568	203
1175	9576	195
1176	9585	187
1177	9593	179
1178	9600	171
1179	9608	162
1180	9616	154
1181	9623	146
1182	9631	138
1183	9639	130
1184	9646	122
1185	9654	113
1186	9662	105
1187	9671	97
1188	9681	89
1189	9689	81
1190	9697	73
1191	9705	65
1192	9712	56
1193	9720	48
1194	9728	40
1195	9735	32
1196	9743	24
1197	9751	16
1198	9758	8
1199	9767	0
