,emg_min_0,emg_min_1,emg_min_2,emg_prev_0_0,emg_prev_0_1,emg_prev_0_2,emg_prev_0_3,emg_prev_0_4,emg_prev_0_5,emg_prev_0_6,emg_prev_0_7,emg_prev_0_8,emg_prev_0_9,emg_prev_0_10,emg_prev_0_11,emg_prev_0_12,emg_prev_0_13,emg_prev_0_14,emg_prev_0_15,emg_prev_0_16,emg_prev_0_17,emg_prev_0_18,emg_prev_0_19,emg_prev_1_0,emg_prev_1_1,emg_prev_1_2,emg_prev_1_3,emg_prev_1_4,emg_prev_1_5,emg_prev_1_6,emg_prev_1_7,emg_prev_1_8,emg_prev_1_9,emg_prev_1_10,emg_prev_1_11,emg_prev_1_12,emg_prev_1_13,emg_prev_1_14,emg_prev_1_15,emg_prev_1_16,emg_prev_1_17,emg_prev_1_18,emg_prev_1_19,emg_prev_2_0,emg_prev_2_1,emg_prev_2_2,emg_prev_2_3,emg_prev_2_4,emg_prev_2_5,emg_prev_2_6,emg_prev_2_7,emg_prev_2_8,emg_prev_2_9,emg_prev_2_10,emg_prev_2_11,emg_prev_2_12,emg_prev_2_13,emg_prev_2_14,emg_prev_2_15,emg_prev_2_16,emg_prev_2_17,emg_prev_2_18,emg_prev_2_19,emg_0,emg_1,emg_2,emg_med_0,emg_med_1,emg_med_2,emg_ampl_0,emg_ampl_1,emg_ampl_2,emg_max_0,emg_max_1,emg_max_2
0,0.0,0.0,0.0,0.0,0.0,0.0,0.0,0.0,0.0,0.0,0.0,0.0,0.0,0.0,0.0,0.0,0.0,0.0,0.0,0.0,0.0,0.0,0.0,0.0,0.0,0.0,0.0,0.0,0.0,0.0,0.0,0.0,0.0,0.0,0.0,0.0,0.0,0.0,0.0,0.0,0.0,0.0,0.0,0.0,0.0,0.0,0.0,0.0,0.0,0.0,0.0,0.0,0.0,0.0,0.0,0.0,0.0,0.0,0.0,0.0,0.0,0.0,0.0,0.0,0.0,0.0,0.0,0.0,0.0,0.0,0.0,0.0,0.0,0.0,0.0
0,474.0,507.0,482.0,485.0,485.0,485.0,485.0,485.0,474.0,474.0,474.0,474.0,474.0,489.0,489.0,489.0,489.0,489.0,491.0,491.0,491.0,491.0,491.0,549.0,549.0,549.0,549.0,549.0,544.0,544.0,544.0,544.0,544.0,513.0,513.0,513.0,513.0,513.0,507.0,507.0,507.0,507.0,507.0,482.0,482.0,482.0,482.0,482.0,521.0,521.0,521.0,521.0,521.0,504.0,504.0,504.0,504.0,504.0,515.0,515.0,515.0,515.0,515.0,491.0,507.0,515.0,491.1111111111111,535.5555555555555,506.77777777777777,28.0,65.0,54.0,491.0,549.0,521.0
0,474.0,472.0,482.0,485.0,485.0,474.0,474.0,474.0,474.0,474.0,489.0,489.0,489.0,489.0,489.0,491.0,491.0,491.0,491.0,491.0,497.0,497.0,497.0,549.0,549.0,544.0,544.0,544.0,544.0,544.0,513.0,513.0,513.0,513.0,513.0,507.0,507.0,507.0,507.0,507.0,472.0,472.0,472.0,482.0,482.0,521.0,521.0,521.0,521.0,521.0,504.0,504.0,504.0,504.0,504.0,515.0,515.0,515.0,515.0,515.0,508.0,508.0,508.0,497.0,472.0,508.0,491.0444444444444,532.6222222222223,507.0444444444444,28.0,100.0,54.0,497.0,549.0,521.0
0,474.0,472.0,504.0,474.0,474.0,489.0,489.0,489.0,489.0,489.0,491.0,491.0,491.0,491.0,497.0,497.0,497.0,492.0,492.0,492.0,492.0,492.0,486.0,544.0,544.0,513.0,513.0,513.0,513.0,513.0,507.0,507.0,507.0,507.0,472.0,472.0,472.0,491.0,491.0,491.0,491.0,491.0,493.0,521.0,521.0,504.0,504.0,504.0,504.0,504.0,515.0,515.0,515.0,515.0,508.0,508.0,508.0,527.0,527.0,527.0,527.0,527.0,517.0,492.0,491.0,527.0,490.1111111111111,528.5111111111111,508.0,28.0,100.0,54.0,497.0,544.0,527.0
0,486.0,472.0,504.0,489.0,489.0,491.0,491.0,491.0,491.0,491.0,497.0,497.0,497.0,492.0,492.0,492.0,492.0,492.0,486.0,486.0,486.0,486.0,486.0,513.0,513.0,507.0,507.0,507.0,507.0,507.0,472.0,472.0,472.0,491.0,491.0,491.0,491.0,491.0,493.0,493.0,493.0,493.0,493.0,504.0,504.0,515.0,515.0,515.0,515.0,515.0,508.0,508.0,508.0,527.0,527.0,527.0,527.0,527.0,517.0,517.0,517.0,517.0,517.0,486.0,493.0,517.0,488.53333333333336,524.1333333333333,510.0444444444444,25.0,100.0,54.0,497.0,513.0,527.0
0,486.0,472.0,508.0,491.0,491.0,491.0,491.0,497.0,497.0,497.0,492.0,492.0,492.0,492.0,486.0,486.0,486.0,486.0,486.0,493.0,493.0,493.0,491.0,507.0,507.0,507.0,507.0,472.0,472.0,472.0,491.0,491.0,491.0,491.0,493.0,493.0,493.0,493.0,493.0,483.0,483.0,483.0,484.0,515.0,515.0,515.0,515.0,508.0,508.0,508.0,527.0,527.0,527.0,527.0,517.0,517.0,517.0,517.0,517.0,533.0,533.0,533.0,510.0,493.0,483.0,533.0,488.31111111111113,520.4888888888889,512.4444444444445,23.0,100.0,51.0,497.0,507.0,533.0
0,486.0,472.0,489.0,497.0,492.0,492.0,492.0,492.0,492.0,486.0,486.0,486.0,486.0,486.0,493.0,493.0,493.0,491.0,491.0,491.0,491.0,491.0,490.0,472.0,491.0,491.0,491.0,491.0,491.0,493.0,493.0,493.0,493.0,493.0,483.0,483.0,483.0,484.0,484.0,484.0,484.0,484.0,493.0,508.0,527.0,527.0,527.0,527.0,527.0,517.0,517.0,517.0,517.0,517.0,533.0,533.0,533.0,510.0,510.0,510.0,510.0,510.0,489.0,490.0,493.0,489.0,488.2888888888889,510.64444444444445,510.6,23.0,100.0,51.0,497.0,493.0,533.0
0,486.0,483.0,489.0,492.0,492.0,486.0,486.0,486.0,486.0,486.0,493.0,493.0,493.0,491.0,491.0,491.0,491.0,491.0,490.0,490.0,490.0,490.0,498.0,491.0,491.0,493.0,493.0,493.0,493.0,493.0,483.0,483.0,483.0,484.0,484.0,484.0,484.0,484.0,493.0,493.0,493.0,493.0,512.0,527.0,527.0,517.0,517.0,517.0,517.0,517.0,533.0,533.0,533.0,510.0,510.0,510.0,510.0,510.0,489.0,489.0,489.0,489.0,538.0,498.0,512.0,538.0,488.5111111111111,504.55555555555554,511.44444444444446,24.0,77.0,56.0,498.0,512.0,538.0
0,486.0,483.0,477.0,486.0,486.0,493.0,493.0,493.0,491.0,491.0,491.0,491.0,491.0,490.0,490.0,490.0,490.0,498.0,498.0,498.0,498.0,498.0,496.0,493.0,493.0,483.0,483.0,483.0,484.0,484.0,484.0,484.0,484.0,493.0,493.0,493.0,493.0,512.0,512.0,512.0,512.0,512.0,509.0,517.0,517.0,533.0,533.0,533.0,510.0,510.0,510.0,510.0,510.0,489.0,489.0,489.0,489.0,538.0,538.0,538.0,538.0,538.0,477.0,496.0,509.0,477.0,490.15555555555557,500.4888888888889,515.4444444444445,24.0,72.0,61.0,498.0,512.0,538.0
0,490.0,483.0,477.0,493.0,491.0,491.0,491.0,491.0,491.0,490.0,490.0,490.0,490.0,498.0,498.0,498.0,498.0,498.0,496.0,496.0,496.0,496.0,495.0,483.0,484.0,484.0,484.0,484.0,484.0,493.0,493.0,493.0,493.0,512.0,512.0,512.0,512.0,512.0,509.0,509.0,509.0,509.0,494.0,533.0,510.0,510.0,510.0,510.0,510.0,489.0,489.0,489.0,489.0,538.0,538.0,538.0,538.0,538.0,477.0,477.0,477.0,477.0,512.0,495.0,494.0,512.0,492.0888888888889,497.0444444444444,512.3111111111111,12.0,41.0,61.0,498.0,512.0,538.0
0,490.0,469.0,477.0,491.0,490.0,490.0,490.0,490.0,498.0,498.0,498.0,498.0,498.0,496.0,496.0,496.0,496.0,495.0,495.0,495.0,495.0,495.0,490.0,484.0,493.0,493.0,493.0,493.0,512.0,512.0,512.0,512.0,512.0,509.0,509.0,509.0,509.0,494.0,494.0,494.0,494.0,494.0,469.0,510.0,489.0,489.0,489.0,489.0,538.0,538.0,538.0,538.0,538.0,477.0,477.0,477.0,477.0,512.0,512.0,512.0,512.0,512.0,499.0,490.0,469.0,499.0,492.64444444444445,494.3777777777778,512.9111111111112,12.0,43.0,61.0,498.0,512.0,538.0
0,490.0,469.0,477.0,498.0,498.0,498.0,498.0,498.0,496.0,496.0,496.0,496.0,495.0,495.0,495.0,495.0,495.0,490.0,490.0,490.0,490.0,490.0,494.0,512.0,512.0,512.0,512.0,512.0,509.0,509.0,509.0,509.0,494.0,494.0,494.0,494.0,494.0,469.0,469.0,469.0,469.0,469.0,471.0,538.0,538.0,538.0,538.0,538.0,477.0,477.0,477.0,477.0,512.0,512.0,512.0,512.0,512.0,499.0,499.0,499.0,499.0,499.0,507.0,494.0,471.0,507.0,492.6222222222222,490.2,511.31111111111113,12.0,43.0,61.0,498.0,512.0,538.0
0,490.0,469.0,477.0,496.0,496.0,496.0,496.0,495.0,495.0,495.0,495.0,495.0,490.0,490.0,490.0,490.0,490.0,494.0,494.0,494.0,494.0,494.0,500.0,509.0,509.0,509.0,509.0,494.0,494.0,494.0,494.0,494.0,469.0,469.0,469.0,469.0,469.0,471.0,471.0,471.0,471.0,471.0,473.0,477.0,477.0,477.0,477.0,512.0,512.0,512.0,512.0,512.0,499.0,499.0,499.0,499.0,499.0,507.0,507.0,507.0,507.0,507.0,523.0,500.0,473.0,523.0,492.64444444444445,489.2888888888889,510.7111111111111,14.0,43.0,61.0,500.0,509.0,523.0
0,490.0,469.0,490.0,495.0,495.0,495.0,495.0,495.0,490.0,490.0,490.0,490.0,494.0,494.0,494.0,494.0,494.0,500.0,500.0,500.0,500.0,501.0,501.0,494.0,494.0,494.0,494.0,494.0,469.0,469.0,469.0,469.0,471.0,471.0,471.0,471.0,471.0,473.0,473.0,473.0,473.0,473.0,473.0,512.0,512.0,512.0,512.0,512.0,499.0,499.0,499.0,499.0,507.0,507.0,507.0,507.0,507.0,523.0,523.0,523.0,523.0,490.0,490.0,501.0,473.0,490.0,493.5111111111111,487.64444444444445,509.84444444444443,15.0,43.0,61.0,501.0,494.0,523.0
0,490.0,469.0,486.0,490.0,490.0,490.0,490.0,494.0,494.0,494.0,494.0,494.0,500.0,500.0,500.0,500.0,501.0,501.0,501.0,501.0,501.0,504.0,504.0,469.0,469.0,469.0,469.0,471.0,471.0,471.0,471.0,471.0,473.0,473.0,473.0,473.0,473.0,473.0,473.0,473.0,473.0,481.0,481.0,499.0,499.0,499.0,499.0,507.0,507.0,507.0,507.0,507.0,523.0,523.0,523.0,523.0,490.0,490.0,490.0,490.0,490.0,486.0,486.0,504.0,481.0,486.0,495.3333333333333,485.77777777777777,505.35555555555555,14.0,43.0,61.0,504.0,481.0,523.0
0,494.0,471.0,485.0,494.0,494.0,494.0,494.0,494.0,500.0,500.0,500.0,500.0,501.0,501.0,501.0,501.0,501.0,504.0,504.0,504.0,504.0,504.0,500.0,471.0,471.0,471.0,471.0,471.0,473.0,473.0,473.0,473.0,473.0,473.0,473.0,473.0,473.0,481.0,481.0,481.0,481.0,481.0,509.0,507.0,507.0,507.0,507.0,507.0,523.0,523.0,523.0,523.0,490.0,490.0,490.0,490.0,490.0,486.0,486.0,486.0,486.0,486.0,485.0,500.0,509.0,485.0,496.35555555555555,486.15555555555557,502.68888888888887,14.0,43.0,61.0,504.0,509.0,523.0
0,500.0,473.0,475.0,500.0,500.0,500.0,500.0,501.0,501.0,501.0,501.0,501.0,504.0,504.0,504.0,504.0,504.0,500.0,500.0,500.0,500.0,507.0,507.0,473.0,473.0,473.0,473.0,473.0,473.0,473.0,473.0,473.0,481.0,481.0,481.0,481.0,481.0,509.0,509.0,509.0,509.0,524.0,524.0,523.0,523.0,523.0,523.0,490.0,490.0,490.0,490.0,490.0,486.0,486.0,486.0,486.0,486.0,485.0,485.0,485.0,485.0,475.0,475.0,507.0,524.0,475.0,497.35555555555555,489.0,500.8666666666667,17.0,55.0,63.0,507.0,524.0,523.0
0,500.0,473.0,470.0,501.0,501.0,501.0,501.0,501.0,504.0,504.0,504.0,504.0,504.0,500.0,500.0,500.0,500.0,507.0,507.0,507.0,507.0,507.0,512.0,473.0,473.0,473.0,473.0,473.0,481.0,481.0,481.0,481.0,481.0,509.0,509.0,509.0,509.0,524.0,524.0,524.0,524.0,524.0,527.0,490.0,490.0,490.0,490.0,490.0,486.0,486.0,486.0,486.0,486.0,485.0,485.0,485.0,485.0,475.0,475.0,475.0,475.0,475.0,470.0,512.0,527.0,470.0,498.8222222222222,490.55555555555554,496.24444444444447,22.0,58.0,68.0,512.0,527.0,490.0
0,500.0,481.0,470.0,504.0,504.0,504.0,504.0,500.0,500.0,500.0,500.0,507.0,507.0,507.0,507.0,507.0,512.0,512.0,512.0,512.0,512.0,512.0,513.0,481.0,481.0,481.0,481.0,509.0,509.0,509.0,509.0,524.0,524.0,524.0,524.0,524.0,527.0,527.0,527.0,527.0,527.0,527.0,559.0,486.0,486.0,486.0,486.0,485.0,485.0,485.0,485.0,475.0,475.0,475.0,475.0,475.0,470.0,470.0,470.0,470.0,470.0,470.0,475.0,512.0,527.0,470.0,500.5111111111111,492.4222222222222,492.75555555555553,22.0,58.0,53.0,513.0,559.0,486.0
0,500.0,481.0,470.0,504.0,500.0,500.0,500.0,500.0,507.0,507.0,507.0,507.0,507.0,512.0,512.0,512.0,512.0,512.0,512.0,513.0,513.0,513.0,513.0,481.0,509.0,509.0,509.0,509.0,524.0,524.0,524.0,524.0,524.0,527.0,527.0,527.0,527.0,527.0,527.0,559.0,559.0,559.0,559.0,486.0,485.0,485.0,485.0,485.0,475.0,475.0,475.0,475.0,475.0,470.0,470.0,470.0,470.0,470.0,470.0,475.0,475.0,475.0,475.0,513.0,559.0,475.0,502.0888888888889,497.8666666666667,490.24444444444447,23.0,90.0,53.0,513.0,559.0,486.0
0,501.0,524.0,470.0,507.0,507.0,507.0,507.0,512.0,512.0,512.0,512.0,512.0,512.0,513.0,513.0,513.0,513.0,513.0,513.0,513.0,513.0,513.0,501.0,524.0,524.0,524.0,524.0,527.0,527.0,527.0,527.0,527.0,527.0,559.0,559.0,559.0,559.0,527.0,527.0,527.0,527.0,527.0,533.0,475.0,475.0,475.0,475.0,470.0,470.0,470.0,470.0,470.0,470.0,475.0,475.0,475.0,475.0,504.0,504.0,504.0,504.0,504.0,486.0,501.0,533.0,486.0,504.6666666666667,504.6222222222222,489.93333333333334,23.0,90.0,53.0,513.0,559.0,504.0
0,500.0,515.0,470.0,512.0,512.0,512.0,513.0,513.0,513.0,513.0,513.0,513.0,513.0,513.0,513.0,501.0,501.0,501.0,501.0,501.0,501.0,500.0,500.0,527.0,527.0,527.0,559.0,559.0,559.0,559.0,527.0,527.0,527.0,527.0,527.0,533.0,533.0,533.0,533.0,533.0,533.0,515.0,515.0,470.0,470.0,470.0,475.0,475.0,475.0,475.0,504.0,504.0,504.0,504.0,504.0,486.0,486.0,486.0,486.0,486.0,486.0,482.0,482.0,500.0,515.0,482.0,505.6666666666667,513.4666666666667,486.31111111111113,13.0,86.0,53.0,513.0,559.0,504.0
0,500.0,501.0,475.0,513.0,513.0,513.0,513.0,513.0,513.0,501.0,501.0,501.0,501.0,501.0,501.0,500.0,500.0,500.0,500.0,500.0,500.0,502.0,502.0,559.0,527.0,527.0,527.0,527.0,527.0,533.0,533.0,533.0,533.0,533.0,533.0,515.0,515.0,515.0,515.0,515.0,515.0,501.0,501.0,475.0,504.0,504.0,504.0,504.0,504.0,486.0,486.0,486.0,486.0,486.0,486.0,482.0,482.0,482.0,482.0,482.0,482.0,517.0,517.0,502.0,501.0,517.0,505.68888888888887,518.4444444444445,484.6,13.0,86.0,47.0,513.0,559.0,517.0
0,500.0,500.0,482.0,513.0,513.0,501.0,501.0,501.0,501.0,501.0,501.0,500.0,500.0,500.0,500.0,500.0,500.0,502.0,502.0,502.0,502.0,502.0,517.0,527.0,527.0,533.0,533.0,533.0,533.0,533.0,533.0,515.0,515.0,515.0,515.0,515.0,515.0,501.0,501.0,501.0,501.0,501.0,500.0,504.0,504.0,486.0,486.0,486.0,486.0,486.0,486.0,482.0,482.0,482.0,482.0,482.0,482.0,517.0,517.0,517.0,517.0,517.0,508.0,517.0,500.0,508.0,505.97777777777776,520.5555555555555,486.97777777777776,17.0,78.0,47.0,517.0,533.0,517.0
0,498.0,479.0,482.0,501.0,501.0,501.0,500.0,500.0,500.0,500.0,500.0,500.0,502.0,502.0,502.0,502.0,502.0,517.0,517.0,517.0,517.0,498.0,498.0,533.0,533.0,533.0,515.0,515.0,515.0,515.0,515.0,515.0,501.0,501.0,501.0,501.0,501.0,500.0,500.0,500.0,500.0,479.0,479.0,486.0,486.0,486.0,482.0,482.0,482.0,482.0,482.0,482.0,517.0,517.0,517.0,517.0,517.0,508.0,508.0,508.0,508.0,524.0,524.0,498.0,479.0,524.0,506.75555555555553,520.4888888888889,490.1777777777778,19.0,80.0,54.0,517.0,533.0,524.0
0,498.0,479.0,482.0,500.0,500.0,500.0,500.0,500.0,500.0,502.0,502.0,502.0,502.0,502.0,517.0,517.0,517.0,517.0,498.0,498.0,498.0,498.0,498.0,515.0,515.0,515.0,515.0,515.0,515.0,501.0,501.0,501.0,501.0,501.0,500.0,500.0,500.0,500.0,479.0,479.0,479.0,479.0,497.0,482.0,482.0,482.0,482.0,482.0,482.0,517.0,517.0,517.0,517.0,517.0,508.0,508.0,508.0,508.0,524.0,524.0,524.0,524.0,537.0,498.0,497.0,537.0,506.46666666666664,518.5555555555555,493.2888888888889,19.0,80.0,67.0,517.0,515.0,537.0
0,498.0,479.0,482.0,500.0,502.0,502.0,502.0,502.0,502.0,517.0,517.0,517.0,517.0,498.0,498.0,498.0,498.0,498.0,498.0,498.0,498.0,505.0,505.0,515.0,501.0,501.0,501.0,501.0,501.0,500.0,500.0,500.0,500.0,479.0,479.0,479.0,479.0,497.0,497.0,497.0,497.0,491.0,491.0,482.0,517.0,517.0,517.0,517.0,517.0,508.0,508.0,508.0,508.0,524.0,524.0,524.0,524.0,537.0,537.0,537.0,537.0,532.0,532.0,505.0,491.0,532.0,505.6666666666667,515.2222222222222,500.06666666666666,19.0,80.0,67.0,517.0,515.0,537.0
0,494.0,479.0,480.0,502.0,502.0,502.0,517.0,517.0,517.0,517.0,498.0,498.0,498.0,498.0,498.0,498.0,498.0,498.0,505.0,505.0,505.0,505.0,494.0,501.0,501.0,501.0,500.0,500.0,500.0,500.0,479.0,479.0,479.0,479.0,497.0,497.0,497.0,497.0,491.0,491.0,491.0,491.0,507.0,517.0,517.0,517.0,508.0,508.0,508.0,508.0,524.0,524.0,524.0,524.0,537.0,537.0,537.0,537.0,532.0,532.0,532.0,532.0,480.0,494.0,507.0,480.0,504.9555555555556,513.1777777777778,503.0444444444444,23.0,80.0,67.0,517.0,507.0,537.0
0,494.0,479.0,480.0,517.0,517.0,517.0,498.0,498.0,498.0,498.0,498.0,498.0,498.0,498.0,505.0,505.0,505.0,505.0,494.0,494.0,494.0,494.0,494.0,500.0,500.0,500.0,479.0,479.0,479.0,479.0,497.0,497.0,497.0,497.0,491.0,491.0,491.0,491.0,507.0,507.0,507.0,507.0,507.0,508.0,508.0,508.0,524.0,524.0,524.0,524.0,537.0,537.0,537.0,537.0,532.0,532.0,532.0,532.0,480.0,480.0,480.0,480.0,480.0,494.0,507.0,480.0,503.31111111111113,509.97777777777776,503.7111111111111,23.0,80.0,62.0,517.0,507.0,537.0
0,492.0,479.0,480.0,498.0,498.0,498.0,498.0,498.0,498.0,498.0,498.0,505.0,505.0,505.0,505.0,494.0,494.0,494.0,494.0,494.0,492.0,504.0,504.0,479.0,479.0,479.0,479.0,497.0,497.0,497.0,497.0,491.0,491.0,491.0,491.0,507.0,507.0,507.0,507.0,507.0,530.0,509.0,509.0,524.0,524.0,524.0,524.0,537.0,537.0,537.0,537.0,532.0,532.0,532.0,532.0,480.0,480.0,480.0,480.0,480.0,496.0,508.0,508.0,504.0,509.0,508.0,502.44444444444446,507.8222222222222,505.0,25.0,54.0,57.0,505.0,530.0,537.0
0,492.0,491.0,480.0,498.0,498.0,498.0,505.0,505.0,505.0,505.0,494.0,494.0,494.0,494.0,494.0,492.0,504.0,504.0,504.0,504.0,504.0,512.0,512.0,497.0,497.0,497.0,491.0,491.0,491.0,491.0,507.0,507.0,507.0,507.0,507.0,530.0,509.0,509.0,509.0,509.0,509.0,503.0,503.0,537.0,537.0,537.0,532.0,532.0,532.0,532.0,480.0,480.0,480.0,480.0,480.0,496.0,508.0,508.0,508.0,508.0,508.0,510.0,510.0,512.0,503.0,510.0,502.06666666666666,505.4222222222222,505.93333333333334,25.0,54.0,57.0,512.0,530.0,537.0
0,492.0,491.0,480.0,505.0,505.0,505.0,505.0,494.0,494.0,494.0,494.0,494.0,492.0,504.0,504.0,504.0,504.0,504.0,512.0,512.0,512.0,512.0,496.0,491.0,491.0,491.0,491.0,507.0,507.0,507.0,507.0,507.0,530.0,509.0,509.0,509.0,509.0,509.0,503.0,503.0,503.0,503.0,519.0,532.0,532.0,532.0,532.0,480.0,480.0,480.0,480.0,480.0,496.0,508.0,508.0,508.0,508.0,508.0,510.0,510.0,510.0,510.0,482.0,496.0,519.0,482.0,502.44444444444446,503.77777777777777,506.9111111111111,25.0,54.0,57.0,512.0,530.0,532.0
0,492.0,501.0,480.0,494.0,494.0,494.0,494.0,494.0,492.0,504.0,504.0,504.0,504.0,504.0,512.0,512.0,512.0,512.0,496.0,496.0,496.0,496.0,501.0,507.0,507.0,507.0,507.0,507.0,530.0,509.0,509.0,509.0,509.0,509.0,503.0,503.0,503.0,503.0,519.0,519.0,519.0,519.0,501.0,480.0,480.0,480.0,480.0,480.0,496.0,508.0,508.0,508.0,508.0,508.0,510.0,510.0,510.0,510.0,482.0,482.0,482.0,482.0,531.0,501.0,501.0,531.0,502.15555555555557,502.93333333333334,507.8222222222222,25.0,51.0,57.0,512.0,530.0,531.0
0,492.0,500.0,482.0,492.0,504.0,504.0,504.0,504.0,504.0,512.0,512.0,512.0,512.0,496.0,496.0,496.0,496.0,501.0,501.0,501.0,501.0,501.0,502.0,530.0,509.0,509.0,509.0,509.0,509.0,503.0,503.0,503.0,503.0,519.0,519.0,519.0,519.0,501.0,501.0,501.0,501.0,501.0,500.0,496.0,508.0,508.0,508.0,508.0,508.0,510.0,510.0,510.0,510.0,482.0,482.0,482.0,482.0,531.0,531.0,531.0,531.0,531.0,506.0,502.0,500.0,506.0,502.24444444444447,501.6666666666667,511.93333333333334,25.0,51.0,57.0,512.0,530.0,531.0
0,496.0,500.0,482.0,504.0,504.0,512.0,512.0,512.0,496.0,496.0,496.0,496.0,501.0,501.0,501.0,501.0,501.0,502.0,502.0,502.0,502.0,502.0,514.0,509.0,509.0,503.0,503.0,503.0,519.0,519.0,519.0,519.0,501.0,501.0,501.0,501.0,501.0,500.0,500.0,500.0,500.0,500.0,481.0,508.0,510.0,510.0,510.0,510.0,482.0,482.0,482.0,482.0,531.0,531.0,531.0,531.0,531.0,506.0,506.0,506.0,506.0,506.0,486.0,502.0,500.0,506.0,502.24444444444447,501.5777777777778,510.9555555555556,25.0,51.0,57.0,512.0,519.0,531.0
0,496.0,481.0,482.0,512.0,512.0,496.0,496.0,496.0,496.0,501.0,501.0,501.0,501.0,501.0,502.0,502.0,502.0,502.0,502.0,514.0,514.0,509.0,509.0,503.0,503.0,519.0,519.0,519.0,519.0,501.0,501.0,501.0,501.0,501.0,500.0,500.0,500.0,500.0,500.0,481.0,481.0,492.0,492.0,510.0,510.0,482.0,482.0,482.0,482.0,531.0,531.0,531.0,531.0,531.0,506.0,506.0,506.0,506.0,506.0,486.0,486.0,535.0,535.0,509.0,492.0,535.0,501.75555555555553,500.3777777777778,511.1777777777778,22.0,51.0,57.0,514.0,519.0,535.0
0,496.0,481.0,482.0,496.0,496.0,496.0,501.0,501.0,501.0,501.0,501.0,502.0,502.0,502.0,502.0,502.0,514.0,514.0,509.0,509.0,509.0,500.0,500.0,519.0,519.0,519.0,501.0,501.0,501.0,501.0,501.0,500.0,500.0,500.0,500.0,500.0,481.0,481.0,492.0,492.0,492.0,483.0,483.0,482.0,482.0,482.0,531.0,531.0,531.0,531.0,531.0,506.0,506.0,506.0,506.0,506.0,486.0,486.0,535.0,535.0,535.0,498.0,498.0,500.0,483.0,498.0,502.0888888888889,500.84444444444443,510.26666666666665,22.0,51.0,57.0,514.0,519.0,535.0
0,500.0,481.0,484.0,501.0,501.0,501.0,502.0,502.0,502.0,502.0,502.0,514.0,514.0,509.0,509.0,509.0,500.0,500.0,500.0,500.0,500.0,506.0,506.0,501.0,501.0,501.0,500.0,500.0,500.0,500.0,500.0,481.0,481.0,492.0,492.0,492.0,483.0,483.0,483.0,483.0,483.0,521.0,521.0,531.0,531.0,531.0,506.0,506.0,506.0,506.0,506.0,486.0,486.0,535.0,535.0,535.0,498.0,498.0,498.0,498.0,498.0,484.0,484.0,506.0,521.0,484.0,502.5777777777778,501.3777777777778,505.6,22.0,49.0,55.0,514.0,521.0,535.0
0,500.0,481.0,473.0,502.0,502.0,502.0,502.0,514.0,514.0,509.0,509.0,509.0,500.0,500.0,500.0,500.0,500.0,506.0,506.0,506.0,506.0,514.0,514.0,500.0,500.0,500.0,500.0,481.0,481.0,492.0,492.0,492.0,483.0,483.0,483.0,483.0,483.0,521.0,521.0,521.0,521.0,521.0,521.0,506.0,506.0,506.0,506.0,486.0,486.0,535.0,535.0,535.0,498.0,498.0,498.0,498.0,498.0,484.0,484.0,484.0,484.0,473.0,473.0,514.0,521.0,473.0,503.02222222222224,504.0444444444444,500.84444444444443,22.0,49.0,62.0,514.0,521.0,535.0
0,500.0,481.0,473.0,502.0,514.0,514.0,509.0,509.0,509.0,500.0,500.0,500.0,500.0,500.0,506.0,506.0,506.0,506.0,514.0,514.0,514.0,514.0,514.0,500.0,481.0,481.0,492.0,492.0,492.0,483.0,483.0,483.0,483.0,483.0,521.0,521.0,521.0,521.0,521.0,521.0,521.0,521.0,521.0,506.0,486.0,486.0,535.0,535.0,535.0,498.0,498.0,498.0,498.0,498.0,484.0,484.0,484.0,484.0,473.0,473.0,473.0,473.0,473.0,514.0,521.0,473.0,504.35555555555555,504.97777777777776,500.3777777777778,22.0,49.0,62.0,514.0,521.0,535.0
0,500.0,483.0,473.0,509.0,500.0,500.0,500.0,500.0,500.0,506.0,506.0,506.0,506.0,514.0,514.0,514.0,514.0,514.0,505.0,505.0,505.0,508.0,508.0,492.0,483.0,483.0,483.0,483.0,483.0,521.0,521.0,521.0,521.0,521.0,521.0,521.0,521.0,555.0,555.0,555.0,555.0,559.0,559.0,535.0,498.0,498.0,498.0,498.0,498.0,484.0,484.0,484.0,484.0,473.0,473.0,473.0,473.0,476.0,476.0,476.0,476.0,492.0,492.0,508.0,559.0,492.0,505.24444444444447,509.8,498.68888888888887,18.0,78.0,62.0,514.0,559.0,535.0
0,485.0,483.0,473.0,500.0,506.0,506.0,506.0,506.0,514.0,514.0,514.0,514.0,514.0,505.0,505.0,505.0,505.0,508.0,508.0,508.0,508.0,485.0,485.0,483.0,521.0,521.0,521.0,521.0,521.0,521.0,521.0,521.0,521.0,555.0,555.0,555.0,555.0,559.0,559.0,559.0,559.0,578.0,578.0,498.0,484.0,484.0,484.0,484.0,473.0,473.0,473.0,473.0,473.0,476.0,476.0,476.0,476.0,492.0,492.0,492.0,492.0,497.0,497.0,485.0,578.0,497.0,504.31111111111113,516.4666666666667,497.0444444444444,29.0,97.0,62.0,514.0,578.0,498.0
0,485.0,521.0,473.0,506.0,514.0,514.0,514.0,514.0,514.0,505.0,505.0,505.0,505.0,508.0,508.0,508.0,508.0,485.0,485.0,485.0,485.0,507.0,507.0,521.0,521.0,521.0,521.0,521.0,521.0,555.0,555.0,555.0,555.0,559.0,559.0,559.0,559.0,578.0,578.0,578.0,578.0,559.0,559.0,484.0,473.0,473.0,473.0,473.0,473.0,476.0,476.0,476.0,476.0,492.0,492.0,492.0,492.0,497.0,497.0,497.0,497.0,474.0,474.0,507.0,559.0,474.0,503.6,521.5777777777778,496.1111111111111,29.0,97.0,62.0,514.0,578.0,497.0
0,485.0,513.0,473.0,514.0,514.0,505.0,505.0,505.0,505.0,508.0,508.0,508.0,508.0,485.0,485.0,485.0,485.0,507.0,507.0,507.0,507.0,507.0,502.0,521.0,521.0,555.0,555.0,555.0,555.0,559.0,559.0,559.0,559.0,578.0,578.0,578.0,578.0,559.0,559.0,559.0,559.0,559.0,513.0,473.0,473.0,476.0,476.0,476.0,476.0,492.0,492.0,492.0,492.0,497.0,497.0,497.0,497.0,474.0,474.0,474.0,474.0,474.0,504.0,502.0,513.0,504.0,504.24444444444447,524.9111111111112,493.8888888888889,29.0,97.0,62.0,514.0,578.0,504.0
0,485.0,513.0,474.0,505.0,505.0,508.0,508.0,508.0,508.0,485.0,485.0,485.0,485.0,507.0,507.0,507.0,507.0,507.0,502.0,502.0,502.0,504.0,504.0,555.0,555.0,559.0,559.0,559.0,559.0,578.0,578.0,578.0,578.0,559.0,559.0,559.0,559.0,559.0,513.0,513.0,513.0,530.0,530.0,476.0,476.0,492.0,492.0,492.0,492.0,497.0,497.0,497.0,497.0,474.0,474.0,474.0,474.0,474.0,504.0,504.0,504.0,513.0,513.0,504.0,530.0,513.0,504.4,526.7555555555556,492.44444444444446,29.0,97.0,62.0,508.0,578.0,513.0
0,485.0,513.0,460.0,508.0,508.0,485.0,485.0,485.0,485.0,507.0,507.0,507.0,507.0,507.0,502.0,502.0,502.0,504.0,504.0,504.0,504.0,504.0,507.0,559.0,559.0,578.0,578.0,578.0,578.0,559.0,559.0,559.0,559.0,559.0,513.0,513.0,513.0,530.0,530.0,530.0,530.0,530.0,523.0,492.0,492.0,497.0,497.0,497.0,497.0,474.0,474.0,474.0,474.0,474.0,504.0,504.0,504.0,513.0,513.0,513.0,513.0,513.0,460.0,507.0,523.0,460.0,504.64444444444445,529.2666666666667,491.8888888888889,29.0,97.0,75.0,508.0,578.0,513.0
0,485.0,513.0,460.0,485.0,485.0,485.0,507.0,507.0,507.0,507.0,507.0,502.0,502.0,502.0,504.0,504.0,504.0,504.0,504.0,507.0,507.0,507.0,496.0,578.0,578.0,578.0,559.0,559.0,559.0,559.0,559.0,513.0,513.0,513.0,530.0,530.0,530.0,530.0,530.0,523.0,523.0,523.0,519.0,497.0,497.0,497.0,474.0,474.0,474.0,474.0,474.0,504.0,504.0,504.0,513.0,513.0,513.0,513.0,513.0,460.0,460.0,460.0,496.0,496.0,519.0,496.0,504.0444444444444,531.7333333333333,489.8666666666667,29.0,95.0,75.0,507.0,578.0,513.0
0,496.0,482.0,460.0,507.0,507.0,507.0,502.0,502.0,502.0,504.0,504.0,504.0,504.0,504.0,507.0,507.0,507.0,496.0,496.0,496.0,496.0,505.0,505.0,559.0,559.0,559.0,513.0,513.0,513.0,530.0,530.0,530.0,530.0,530.0,523.0,523.0,523.0,519.0,519.0,519.0,519.0,482.0,482.0,474.0,474.0,474.0,504.0,504.0,504.0,513.0,513.0,513.0,513.0,513.0,460.0,460.0,460.0,496.0,496.0,496.0,496.0,505.0,505.0,505.0,482.0,505.0,503.6,533.6888888888889,488.4,29.0,96.0,53.0,507.0,559.0,513.0
0,496.0,482.0,460.0,502.0,502.0,504.0,504.0,504.0,504.0,504.0,507.0,507.0,507.0,496.0,496.0,496.0,496.0,505.0,505.0,505.0,505.0,505.0,513.0,513.0,513.0,530.0,530.0,530.0,530.0,530.0,523.0,523.0,523.0,519.0,519.0,519.0,519.0,482.0,482.0,482.0,482.0,482.0,483.0,504.0,504.0,513.0,513.0,513.0,513.0,513.0,460.0,460.0,460.0,496.0,496.0,496.0,496.0,505.0,505.0,505.0,505.0,505.0,494.0,513.0,483.0,494.0,503.9555555555556,531.9333333333333,489.4,29.0,96.0,53.0,513.0,530.0,513.0
0,496.0,482.0,460.0,504.0,504.0,504.0,504.0,507.0,507.0,507.0,496.0,496.0,496.0,496.0,505.0,505.0,505.0,505.0,505.0,513.0,513.0,513.0,496.0,530.0,530.0,530.0,530.0,523.0,523.0,523.0,519.0,519.0,519.0,519.0,482.0,482.0,482.0,482.0,482.0,483.0,483.0,483.0,503.0,513.0,513.0,513.0,513.0,460.0,460.0,460.0,496.0,496.0,496.0,496.0,505.0,505.0,505.0,505.0,505.0,494.0,494.0,494.0,526.0,496.0,503.0,526.0,503.8666666666667,529.8444444444444,491.02222222222224,29.0,96.0,66.0,513.0,530.0,526.0
0,496.0,482.0,460.0,507.0,507.0,507.0,496.0,496.0,496.0,496.0,505.0,505.0,505.0,505.0,505.0,513.0,513.0,513.0,496.0,496.0,496.0,499.0,499.0,523.0,523.0,523.0,519.0,519.0,519.0,519.0,482.0,482.0,482.0,482.0,482.0,483.0,483.0,483.0,503.0,503.0,503.0,502.0,502.0,460.0,460.0,460.0,496.0,496.0,496.0,496.0,505.0,505.0,505.0,505.0,505.0,494.0,494.0,494.0,526.0,526.0,526.0,519.0,519.0,499.0,502.0,519.0,502.4,528.2,495.4222222222222,28.0,96.0,66.0,513.0,523.0,526.0
0,496.0,482.0,494.0,496.0,496.0,496.0,505.0,505.0,505.0,505.0,505.0,513.0,513.0,513.0,496.0,496.0,496.0,499.0,499.0,499.0,499.0,522.0,522.0,519.0,519.0,519.0,482.0,482.0,482.0,482.0,482.0,483.0,483.0,483.0,503.0,503.0,503.0,502.0,502.0,502.0,502.0,486.0,486.0,496.0,496.0,496.0,505.0,505.0,505.0,505.0,505.0,494.0,494.0,494.0,526.0,526.0,526.0,519.0,519.0,519.0,519.0,523.0,523.0,522.0,486.0,523.0,502.8888888888889,522.7777777777778,499.4222222222222,37.0,96.0,66.0,522.0,519.0,526.0
0,490.0,482.0,494.0,505.0,505.0,505.0,505.0,505.0,513.0,513.0,513.0,496.0,496.0,496.0,499.0,499.0,499.0,499.0,522.0,522.0,522.0,490.0,490.0,482.0,482.0,482.0,482.0,482.0,483.0,483.0,483.0,503.0,503.0,503.0,502.0,502.0,502.0,502.0,486.0,486.0,486.0,514.0,514.0,505.0,505.0,505.0,505.0,505.0,494.0,494.0,494.0,526.0,526.0,526.0,519.0,519.0,519.0,519.0,523.0,523.0,523.0,509.0,509.0,490.0,514.0,509.0,502.4,519.1555555555556,500.8666666666667,37.0,96.0,66.0,522.0,514.0,526.0
0,490.0,482.0,494.0,505.0,505.0,505.0,513.0,513.0,496.0,496.0,496.0,499.0,499.0,499.0,499.0,522.0,522.0,522.0,490.0,490.0,490.0,508.0,508.0,482.0,482.0,482.0,483.0,483.0,503.0,503.0,503.0,502.0,502.0,502.0,502.0,486.0,486.0,486.0,514.0,514.0,514.0,513.0,513.0,505.0,505.0,505.0,494.0,494.0,526.0,526.0,526.0,519.0,519.0,519.0,519.0,523.0,523.0,523.0,509.0,509.0,509.0,527.0,527.0,508.0,513.0,527.0,502.5111111111111,516.7111111111111,501.9111111111111,37.0,96.0,67.0,522.0,514.0,527.0
0,490.0,483.0,494.0,513.0,496.0,496.0,496.0,499.0,499.0,499.0,499.0,522.0,522.0,522.0,490.0,490.0,490.0,508.0,508.0,508.0,508.0,508.0,491.0,483.0,503.0,503.0,503.0,502.0,502.0,502.0,502.0,486.0,486.0,486.0,514.0,514.0,514.0,513.0,513.0,513.0,513.0,513.0,510.0,494.0,526.0,526.0,526.0,519.0,519.0,519.0,519.0,523.0,523.0,523.0,509.0,509.0,509.0,527.0,527.0,527.0,527.0,527.0,513.0,491.0,510.0,513.0,503.7111111111111,510.26666666666665,505.9555555555556,32.0,77.0,67.0,522.0,514.0,527.0
0,490.0,486.0,509.0,496.0,499.0,499.0,499.0,499.0,522.0,522.0,522.0,490.0,490.0,490.0,508.0,508.0,508.0,508.0,508.0,491.0,491.0,491.0,504.0,503.0,502.0,502.0,502.0,502.0,486.0,486.0,486.0,514.0,514.0,514.0,513.0,513.0,513.0,513.0,513.0,510.0,510.0,510.0,488.0,526.0,519.0,519.0,519.0,519.0,523.0,523.0,523.0,509.0,509.0,509.0,527.0,527.0,527.0,527.0,527.0,513.0,513.0,513.0,515.0,504.0,488.0,515.0,502.93333333333334,506.5111111111111,508.6,32.0,48.0,67.0,522.0,514.0,527.0
0,490.0,486.0,497.0,499.0,499.0,522.0,522.0,522.0,490.0,490.0,490.0,508.0,508.0,508.0,508.0,508.0,491.0,491.0,491.0,504.0,504.0,504.0,513.0,502.0,502.0,486.0,486.0,486.0,514.0,514.0,514.0,513.0,513.0,513.0,513.0,513.0,510.0,510.0,510.0,488.0,488.0,488.0,489.0,519.0,519.0,523.0,523.0,523.0,509.0,509.0,509.0,527.0,527.0,527.0,527.0,527.0,513.0,513.0,513.0,515.0,515.0,515.0,497.0,513.0,489.0,497.0,503.26666666666665,504.8666666666667,508.93333333333334,32.0,48.0,67.0,522.0,514.0,527.0
0,490.0,468.0,497.0,490.0,490.0,490.0,508.0,508.0,508.0,508.0,508.0,491.0,491.0,491.0,504.0,504.0,504.0,513.0,513.0,513.0,513.0,509.0,509.0,514.0,514.0,514.0,513.0,513.0,513.0,513.0,513.0,510.0,510.0,510.0,488.0,488.0,488.0,489.0,489.0,489.0,489.0,468.0,468.0,509.0,509.0,509.0,527.0,527.0,527.0,527.0,527.0,513.0,513.0,513.0,515.0,515.0,515.0,497.0,497.0,497.0,497.0,516.0,516.0,509.0,468.0,516.0,504.0888888888889,499.3777777777778,508.0,32.0,55.0,67.0,513.0,514.0,527.0
0,491.0,468.0,497.0,508.0,508.0,508.0,508.0,491.0,491.0,491.0,504.0,504.0,504.0,513.0,513.0,513.0,513.0,509.0,509.0,509.0,509.0,508.0,508.0,513.0,513.0,513.0,513.0,510.0,510.0,510.0,488.0,488.0,488.0,489.0,489.0,489.0,489.0,468.0,468.0,468.0,468.0,476.0,476.0,527.0,527.0,527.0,527.0,513.0,513.0,513.0,515.0,515.0,515.0,497.0,497.0,497.0,497.0,516.0,516.0,516.0,516.0,524.0,524.0,508.0,476.0,524.0,504.46666666666664,494.93333333333334,512.5333333333333,32.0,51.0,33.0,513.0,513.0,527.0
0,491.0,468.0,497.0,491.0,491.0,491.0,504.0,504.0,504.0,513.0,513.0,513.0,513.0,509.0,509.0,509.0,509.0,508.0,508.0,508.0,508.0,517.0,517.0,510.0,510.0,510.0,488.0,488.0,488.0,489.0,489.0,489.0,489.0,468.0,468.0,468.0,468.0,476.0,476.0,476.0,476.0,488.0,488.0,513.0,513.0,513.0,515.0,515.0,515.0,497.0,497.0,497.0,497.0,516.0,516.0,516.0,516.0,524.0,524.0,524.0,524.0,498.0,498.0,517.0,488.0,498.0,505.73333333333335,492.46666666666664,513.6666666666666,32.0,46.0,33.0,517.0,510.0,524.0
0,504.0,468.0,490.0,504.0,504.0,513.0,513.0,513.0,513.0,509.0,509.0,509.0,509.0,508.0,508.0,508.0,508.0,517.0,517.0,517.0,517.0,507.0,507.0,488.0,488.0,489.0,489.0,489.0,489.0,468.0,468.0,468.0,468.0,476.0,476.0,476.0,476.0,488.0,488.0,488.0,488.0,533.0,533.0,515.0,515.0,497.0,497.0,497.0,497.0,516.0,516.0,516.0,516.0,524.0,524.0,524.0,524.0,498.0,498.0,498.0,498.0,490.0,490.0,507.0,533.0,490.0,506.35555555555555,495.0,512.6888888888889,32.0,65.0,37.0,517.0,533.0,524.0
0,501.0,468.0,490.0,513.0,513.0,509.0,509.0,509.0,509.0,508.0,508.0,508.0,508.0,517.0,517.0,517.0,517.0,507.0,507.0,507.0,507.0,501.0,501.0,489.0,489.0,468.0,468.0,468.0,468.0,476.0,476.0,476.0,476.0,488.0,488.0,488.0,488.0,533.0,533.0,533.0,533.0,538.0,538.0,497.0,497.0,516.0,516.0,516.0,516.0,524.0,524.0,524.0,524.0,498.0,498.0,498.0,498.0,490.0,490.0,490.0,490.0,511.0,511.0,501.0,538.0,511.0,505.93333333333334,499.22222222222223,512.5555555555555,32.0,70.0,37.0,517.0,538.0,524.0
0,501.0,468.0,479.0,509.0,509.0,508.0,508.0,508.0,508.0,517.0,517.0,517.0,517.0,507.0,507.0,507.0,507.0,501.0,501.0,501.0,501.0,507.0,507.0,468.0,468.0,476.0,476.0,476.0,476.0,488.0,488.0,488.0,488.0,533.0,533.0,533.0,533.0,538.0,538.0,538.0,538.0,545.0,545.0,516.0,516.0,524.0,524.0,524.0,524.0,498.0,498.0,498.0,498.0,490.0,490.0,490.0,490.0,511.0,511.0,511.0,511.0,479.0,479.0,507.0,545.0,479.0,506.5111111111111,502.68888888888887,510.1111111111111,32.0,77.0,48.0,517.0,545.0,524.0
0,499.0,476.0,479.0,508.0,508.0,517.0,517.0,517.0,517.0,507.0,507.0,507.0,507.0,501.0,501.0,501.0,501.0,507.0,507.0,507.0,507.0,499.0,499.0,476.0,476.0,488.0,488.0,488.0,488.0,533.0,533.0,533.0,533.0,538.0,538.0,538.0,538.0,545.0,545.0,545.0,545.0,572.0,572.0,524.0,524.0,498.0,498.0,498.0,498.0,490.0,490.0,490.0,490.0,511.0,511.0,511.0,511.0,479.0,479.0,479.0,479.0,505.0,505.0,499.0,572.0,505.0,505.84444444444443,508.4222222222222,507.53333333333336,32.0,104.0,48.0,517.0,572.0,524.0
0,499.0,488.0,479.0,517.0,517.0,507.0,507.0,507.0,507.0,501.0,501.0,501.0,501.0,507.0,507.0,507.0,507.0,499.0,499.0,499.0,499.0,512.0,512.0,488.0,488.0,533.0,533.0,533.0,533.0,538.0,538.0,538.0,538.0,545.0,545.0,545.0,545.0,572.0,572.0,572.0,572.0,571.0,571.0,498.0,498.0,490.0,490.0,490.0,490.0,511.0,511.0,511.0,511.0,479.0,479.0,479.0,479.0,505.0,505.0,505.0,505.0,483.0,483.0,512.0,571.0,483.0,506.5111111111111,514.1555555555556,505.8888888888889,26.0,104.0,48.0,517.0,572.0,511.0
0,490.0,533.0,479.0,507.0,507.0,501.0,501.0,501.0,501.0,507.0,507.0,507.0,507.0,499.0,499.0,499.0,499.0,512.0,512.0,512.0,512.0,490.0,490.0,533.0,533.0,538.0,538.0,538.0,538.0,545.0,545.0,545.0,545.0,572.0,572.0,572.0,572.0,571.0,571.0,571.0,571.0,566.0,566.0,490.0,490.0,511.0,511.0,511.0,511.0,479.0,479.0,479.0,479.0,505.0,505.0,505.0,505.0,483.0,483.0,483.0,483.0,497.0,497.0,490.0,566.0,497.0,505.8888888888889,519.0888888888888,502.6,27.0,104.0,48.0,512.0,572.0,511.0
0,490.0,538.0,479.0,501.0,501.0,507.0,507.0,507.0,507.0,499.0,499.0,499.0,499.0,512.0,512.0,512.0,512.0,490.0,490.0,490.0,490.0,514.0,514.0,538.0,538.0,545.0,545.0,545.0,545.0,572.0,572.0,572.0,572.0,571.0,571.0,571.0,571.0,566.0,566.0,566.0,566.0,538.0,538.0,511.0,511.0,479.0,479.0,479.0,479.0,505.0,505.0,505.0,505.0,483.0,483.0,483.0,483.0,497.0,497.0,497.0,497.0,513.0,513.0,514.0,538.0,513.0,506.4888888888889,522.7555555555556,501.5777777777778,27.0,104.0,45.0,514.0,572.0,513.0
0,490.0,518.0,479.0,507.0,507.0,499.0,499.0,499.0,499.0,512.0,512.0,512.0,512.0,490.0,490.0,490.0,490.0,514.0,514.0,514.0,514.0,514.0,519.0,545.0,545.0,572.0,572.0,572.0,572.0,571.0,571.0,571.0,571.0,566.0,566.0,566.0,566.0,538.0,538.0,538.0,538.0,538.0,518.0,479.0,479.0,505.0,505.0,505.0,505.0,483.0,483.0,483.0,483.0,497.0,497.0,497.0,497.0,513.0,513.0,513.0,513.0,509.0,509.0,519.0,518.0,509.0,507.2888888888889,526.7333333333333,501.7111111111111,29.0,104.0,45.0,519.0,572.0,513.0
0,490.0,509.0,483.0,499.0,512.0,512.0,512.0,512.0,490.0,490.0,490.0,490.0,514.0,514.0,514.0,514.0,514.0,519.0,519.0,519.0,519.0,504.0,504.0,572.0,571.0,571.0,571.0,571.0,566.0,566.0,566.0,566.0,538.0,538.0,538.0,538.0,538.0,518.0,518.0,518.0,518.0,509.0,509.0,505.0,483.0,483.0,483.0,483.0,497.0,497.0,497.0,497.0,513.0,513.0,513.0,513.0,513.0,509.0,509.0,509.0,509.0,511.0,511.0,504.0,509.0,511.0,507.46666666666664,530.4888888888889,502.2888888888889,29.0,104.0,45.0,519.0,572.0,513.0
0,490.0,486.0,483.0,512.0,490.0,490.0,490.0,490.0,514.0,514.0,514.0,514.0,514.0,519.0,519.0,519.0,519.0,504.0,504.0,504.0,504.0,501.0,501.0,571.0,566.0,566.0,566.0,566.0,538.0,538.0,538.0,538.0,538.0,518.0,518.0,518.0,518.0,509.0,509.0,509.0,509.0,486.0,486.0,483.0,497.0,497.0,497.0,497.0,513.0,513.0,513.0,513.0,513.0,509.0,509.0,509.0,509.0,511.0,511.0,511.0,511.0,515.0,515.0,501.0,486.0,515.0,506.93333333333334,532.7555555555556,501.6666666666667,29.0,96.0,45.0,519.0,571.0,515.0
0,499.0,483.0,505.0,514.0,514.0,514.0,514.0,514.0,519.0,519.0,519.0,519.0,504.0,504.0,504.0,504.0,501.0,501.0,501.0,501.0,501.0,499.0,499.0,538.0,538.0,538.0,538.0,538.0,518.0,518.0,518.0,518.0,509.0,509.0,509.0,509.0,486.0,486.0,486.0,486.0,486.0,483.0,483.0,513.0,513.0,513.0,513.0,513.0,509.0,509.0,509.0,509.0,511.0,511.0,511.0,511.0,515.0,515.0,515.0,515.0,515.0,505.0,505.0,499.0,483.0,505.0,505.46666666666664,532.9333333333333,501.9555555555556,29.0,89.0,36.0,519.0,538.0,515.0
0,499.0,483.0,499.0,514.0,514.0,519.0,519.0,519.0,519.0,504.0,504.0,504.0,504.0,501.0,501.0,501.0,501.0,501.0,499.0,499.0,499.0,504.0,504.0,538.0,538.0,518.0,518.0,518.0,518.0,509.0,509.0,509.0,509.0,486.0,486.0,486.0,486.0,486.0,483.0,483.0,483.0,489.0,489.0,513.0,513.0,509.0,509.0,509.0,509.0,511.0,511.0,511.0,511.0,515.0,515.0,515.0,515.0,515.0,505.0,505.0,505.0,499.0,499.0,504.0,489.0,499.0,504.93333333333334,530.8666666666667,502.5111111111111,29.0,89.0,36.0,519.0,538.0,515.0
0,499.0,483.0,499.0,519.0,519.0,519.0,504.0,504.0,504.0,504.0,501.0,501.0,501.0,501.0,501.0,499.0,499.0,499.0,504.0,504.0,504.0,517.0,517.0,518.0,518.0,518.0,509.0,509.0,509.0,509.0,486.0,486.0,486.0,486.0,486.0,483.0,483.0,483.0,489.0,489.0,489.0,492.0,492.0,509.0,509.0,509.0,511.0,511.0,511.0,511.0,515.0,515.0,515.0,515.0,515.0,505.0,505.0,505.0,499.0,499.0,499.0,553.0,553.0,517.0,492.0,553.0,505.44444444444446,527.9555555555555,505.0444444444444,29.0,89.0,74.0,519.0,518.0,553.0
0,498.0,483.0,497.0,504.0,504.0,504.0,501.0,501.0,501.0,501.0,501.0,499.0,499.0,499.0,504.0,504.0,504.0,517.0,517.0,517.0,517.0,498.0,498.0,509.0,509.0,509.0,486.0,486.0,486.0,486.0,486.0,483.0,483.0,483.0,489.0,489.0,489.0,492.0,492.0,492.0,492.0,497.0,497.0,511.0,511.0,511.0,515.0,515.0,515.0,515.0,515.0,505.0,505.0,505.0,499.0,499.0,499.0,553.0,553.0,553.0,553.0,497.0,497.0,498.0,497.0,497.0,505.8888888888889,523.9333333333333,507.0,29.0,89.0,74.0,517.0,509.0,553.0
0,498.0,483.0,497.0,501.0,501.0,501.0,501.0,501.0,499.0,499.0,499.0,504.0,504.0,504.0,517.0,517.0,517.0,517.0,498.0,498.0,498.0,511.0,511.0,486.0,486.0,486.0,486.0,486.0,483.0,483.0,483.0,489.0,489.0,489.0,492.0,492.0,492.0,492.0,497.0,497.0,497.0,504.0,504.0,515.0,515.0,515.0,515.0,515.0,505.0,505.0,505.0,499.0,499.0,499.0,553.0,553.0,553.0,553.0,497.0,497.0,497.0,505.0,505.0,511.0,504.0,505.0,505.8666666666667,521.0444444444445,508.55555555555554,29.0,89.0,70.0,517.0,504.0,553.0
0,498.0,483.0,497.0,501.0,499.0,499.0,499.0,504.0,504.0,504.0,517.0,517.0,517.0,517.0,498.0,498.0,498.0,511.0,511.0,511.0,511.0,505.0,505.0,486.0,483.0,483.0,483.0,489.0,489.0,489.0,492.0,492.0,492.0,492.0,497.0,497.0,497.0,504.0,504.0,504.0,504.0,500.0,500.0,515.0,505.0,505.0,505.0,499.0,499.0,499.0,553.0,553.0,553.0,553.0,497.0,497.0,497.0,505.0,505.0,505.0,505.0,523.0,523.0,505.0,500.0,523.0,506.6666666666667,514.8222222222222,509.35555555555555,29.0,88.0,70.0,517.0,504.0,553.0
0,498.0,489.0,497.0,504.0,504.0,504.0,517.0,517.0,517.0,517.0,498.0,498.0,498.0,511.0,511.0,511.0,511.0,505.0,505.0,505.0,505.0,506.0,506.0,489.0,489.0,489.0,492.0,492.0,492.0,492.0,497.0,497.0,497.0,504.0,504.0,504.0,504.0,500.0,500.0,500.0,500.0,507.0,507.0,499.0,499.0,499.0,553.0,553.0,553.0,553.0,497.0,497.0,497.0,505.0,505.0,505.0,505.0,523.0,523.0,523.0,523.0,511.0,511.0,506.0,507.0,511.0,506.0888888888889,508.8222222222222,512.3777777777777,29.0,83.0,56.0,517.0,507.0,553.0
0,498.0,473.0,488.0,517.0,517.0,517.0,517.0,498.0,498.0,498.0,511.0,511.0,511.0,511.0,505.0,505.0,505.0,505.0,506.0,506.0,506.0,506.0,504.0,492.0,492.0,492.0,492.0,497.0,497.0,497.0,504.0,504.0,504.0,504.0,500.0,500.0,500.0,500.0,507.0,507.0,507.0,507.0,473.0,553.0,553.0,553.0,553.0,497.0,497.0,497.0,505.0,505.0,505.0,505.0,523.0,523.0,523.0,523.0,511.0,511.0,511.0,511.0,488.0,504.0,473.0,488.0,507.1111111111111,504.1333333333333,512.8,29.0,93.0,65.0,517.0,507.0,553.0
0,498.0,464.0,488.0,498.0,498.0,498.0,511.0,511.0,511.0,511.0,505.0,505.0,505.0,505.0,506.0,506.0,506.0,506.0,504.0,504.0,504.0,504.0,513.0,497.0,497.0,497.0,504.0,504.0,504.0,504.0,500.0,500.0,500.0,500.0,507.0,507.0,507.0,507.0,473.0,473.0,473.0,473.0,464.0,497.0,497.0,497.0,505.0,505.0,505.0,505.0,523.0,523.0,523.0,523.0,511.0,511.0,511.0,511.0,488.0,488.0,488.0,488.0,532.0,513.0,464.0,532.0,506.9555555555556,497.53333333333336,511.9111111111111,21.0,74.0,65.0,513.0,507.0,532.0
0,504.0,464.0,488.0,511.0,511.0,511.0,511.0,505.0,505.0,505.0,505.0,506.0,506.0,506.0,506.0,504.0,504.0,504.0,504.0,513.0,513.0,505.0,505.0,504.0,504.0,504.0,504.0,500.0,500.0,500.0,500.0,507.0,507.0,507.0,507.0,473.0,473.0,473.0,473.0,464.0,464.0,491.0,491.0,505.0,505.0,505.0,505.0,523.0,523.0,523.0,523.0,511.0,511.0,511.0,511.0,488.0,488.0,488.0,488.0,532.0,532.0,533.0,533.0,505.0,491.0,533.0,506.4222222222222,494.24444444444447,513.3111111111111,21.0,54.0,65.0,513.0,507.0,533.0
0,504.0,451.0,488.0,511.0,505.0,505.0,505.0,505.0,506.0,506.0,506.0,506.0,504.0,504.0,504.0,504.0,513.0,513.0,505.0,505.0,505.0,512.0,512.0,504.0,500.0,500.0,500.0,500.0,507.0,507.0,507.0,507.0,473.0,473.0,473.0,473.0,464.0,464.0,491.0,491.0,491.0,451.0,451.0,505.0,523.0,523.0,523.0,523.0,511.0,511.0,511.0,511.0,488.0,488.0,488.0,488.0,532.0,532.0,533.0,533.0,533.0,522.0,522.0,512.0,451.0,522.0,505.8,490.6666666666667,514.4222222222222,21.0,67.0,65.0,513.0,507.0,533.0
0,504.0,451.0,488.0,505.0,505.0,506.0,506.0,506.0,506.0,504.0,504.0,504.0,504.0,513.0,513.0,505.0,505.0,505.0,512.0,512.0,512.0,512.0,517.0,500.0,500.0,507.0,507.0,507.0,507.0,473.0,473.0,473.0,473.0,464.0,464.0,491.0,491.0,491.0,451.0,451.0,451.0,451.0,479.0,523.0,523.0,511.0,511.0,511.0,511.0,488.0,488.0,488.0,488.0,532.0,532.0,533.0,533.0,533.0,522.0,522.0,522.0,522.0,490.0,517.0,479.0,490.0,506.44444444444446,487.4222222222222,514.4444444444445,19.0,58.0,65.0,517.0,507.0,533.0
0,504.0,451.0,488.0,506.0,506.0,504.0,504.0,504.0,504.0,513.0,513.0,505.0,505.0,505.0,512.0,512.0,512.0,512.0,517.0,517.0,517.0,517.0,517.0,507.0,507.0,473.0,473.0,473.0,473.0,464.0,464.0,491.0,491.0,491.0,451.0,451.0,451.0,451.0,479.0,479.0,479.0,479.0,479.0,511.0,511.0,488.0,488.0,488.0,488.0,532.0,532.0,533.0,533.0,533.0,522.0,522.0,522.0,522.0,490.0,490.0,490.0,490.0,490.0,517.0,479.0,490.0,507.8,486.2888888888889,512.3111111111111,19.0,56.0,65.0,517.0,507.0,533.0
0,504.0,451.0,461.0,504.0,504.0,504.0,513.0,513.0,505.0,505.0,505.0,512.0,512.0,512.0,512.0,517.0,517.0,517.0,517.0,517.0,505.0,505.0,508.0,473.0,473.0,473.0,464.0,464.0,491.0,491.0,491.0,451.0,451.0,451.0,451.0,479.0,479.0,479.0,479.0,479.0,513.0,513.0,528.0,488.0,488.0,488.0,532.0,532.0,533.0,533.0,533.0,522.0,522.0,522.0,522.0,490.0,490.0,490.0,490.0,490.0,461.0,461.0,491.0,508.0,528.0,491.0,508.1777777777778,488.4888888888889,509.6,19.0,77.0,92.0,517.0,528.0,533.0
0,505.0,451.0,461.0,513.0,513.0,505.0,505.0,505.0,512.0,512.0,512.0,512.0,517.0,517.0,517.0,517.0,517.0,505.0,505.0,508.0,508.0,508.0,514.0,464.0,464.0,491.0,491.0,491.0,451.0,451.0,451.0,451.0,479.0,479.0,479.0,479.0,479.0,513.0,513.0,528.0,528.0,528.0,545.0,532.0,532.0,533.0,533.0,533.0,522.0,522.0,522.0,522.0,490.0,490.0,490.0,490.0,490.0,461.0,461.0,491.0,491.0,491.0,465.0,514.0,545.0,465.0,508.8,491.73333333333335,508.22222222222223,19.0,94.0,92.0,517.0,545.0,533.0
0,505.0,451.0,461.0,505.0,505.0,512.0,512.0,512.0,512.0,517.0,517.0,517.0,517.0,517.0,505.0,505.0,508.0,508.0,508.0,514.0,514.0,511.0,511.0,491.0,491.0,451.0,451.0,451.0,451.0,479.0,479.0,479.0,479.0,479.0,513.0,513.0,528.0,528.0,528.0,545.0,545.0,564.0,564.0,533.0,533.0,522.0,522.0,522.0,522.0,490.0,490.0,490.0,490.0,490.0,461.0,461.0,491.0,491.0,491.0,465.0,465.0,502.0,502.0,511.0,564.0,502.0,509.0444444444444,496.24444444444447,506.4,19.0,113.0,92.0,517.0,564.0,533.0
0,505.0,451.0,461.0,512.0,512.0,517.0,517.0,517.0,517.0,517.0,505.0,505.0,508.0,508.0,508.0,514.0,514.0,511.0,511.0,511.0,511.0,511.0,511.0,451.0,451.0,479.0,479.0,479.0,479.0,479.0,513.0,513.0,528.0,528.0,528.0,545.0,545.0,564.0,564.0,564.0,564.0,564.0,580.0,522.0,522.0,490.0,490.0,490.0,490.0,490.0,461.0,461.0,491.0,491.0,491.0,465.0,465.0,502.0,502.0,502.0,502.0,502.0,499.0,511.0,580.0,499.0,508.93333333333334,502.8888888888889,503.0444444444444,19.0,129.0,72.0,517.0,580.0,522.0
0,505.0,479.0,456.0,517.0,517.0,517.0,517.0,505.0,505.0,508.0,508.0,508.0,514.0,514.0,511.0,511.0,511.0,511.0,511.0,511.0,511.0,517.0,517.0,479.0,479.0,479.0,479.0,513.0,513.0,528.0,528.0,528.0,545.0,545.0,564.0,564.0,564.0,564.0,564.0,580.0,580.0,569.0,569.0,490.0,490.0,490.0,490.0,461.0,461.0,491.0,491.0,491.0,465.0,465.0,502.0,502.0,502.0,502.0,502.0,499.0,499.0,456.0,456.0,517.0,569.0,456.0,509.77777777777777,507.77777777777777,501.0888888888889,13.0,129.0,77.0,517.0,580.0,502.0
0,505.0,479.0,456.0,517.0,505.0,505.0,508.0,508.0,508.0,514.0,514.0,511.0,511.0,511.0,511.0,511.0,511.0,511.0,517.0,517.0,517.0,516.0,516.0,479.0,513.0,513.0,528.0,528.0,528.0,545.0,545.0,564.0,564.0,564.0,564.0,564.0,580.0,580.0,569.0,569.0,569.0,564.0,564.0,490.0,461.0,461.0,491.0,491.0,491.0,465.0,465.0,502.0,502.0,502.0,502.0,502.0,499.0,499.0,456.0,456.0,456.0,516.0,516.0,516.0,564.0,516.0,510.1333333333333,511.8888888888889,500.4888888888889,13.0,129.0,77.0,517.0,580.0,516.0
0,505.0,528.0,456.0,508.0,508.0,508.0,514.0,514.0,511.0,511.0,511.0,511.0,511.0,511.0,511.0,517.0,517.0,517.0,516.0,516.0,516.0,505.0,505.0,528.0,528.0,528.0,545.0,545.0,564.0,564.0,564.0,564.0,564.0,580.0,580.0,569.0,569.0,569.0,564.0,564.0,564.0,539.0,539.0,491.0,491.0,491.0,465.0,465.0,502.0,502.0,502.0,502.0,502.0,499.0,499.0,456.0,456.0,456.0,516.0,516.0,516.0,504.0,504.0,505.0,539.0,504.0,510.3777777777778,515.0444444444445,499.4888888888889,13.0,129.0,77.0,517.0,580.0,516.0
0,505.0,519.0,456.0,514.0,514.0,511.0,511.0,511.0,511.0,511.0,511.0,511.0,517.0,517.0,517.0,516.0,516.0,516.0,505.0,505.0,505.0,505.0,505.0,545.0,545.0,564.0,564.0,564.0,564.0,564.0,580.0,580.0,569.0,569.0,569.0,564.0,564.0,564.0,539.0,539.0,539.0,519.0,519.0,465.0,465.0,502.0,502.0,502.0,502.0,502.0,499.0,499.0,456.0,456.0,456.0,516.0,516.0,516.0,504.0,504.0,504.0,492.0,492.0,505.0,519.0,492.0,510.3333333333333,516.4444444444445,498.22222222222223,13.0,129.0,77.0,517.0,580.0,516.0
0,503.0,484.0,444.0,511.0,511.0,511.0,511.0,517.0,517.0,517.0,516.0,516.0,516.0,505.0,505.0,505.0,505.0,505.0,505.0,505.0,505.0,503.0,503.0,564.0,564.0,580.0,580.0,569.0,569.0,569.0,564.0,564.0,564.0,539.0,539.0,539.0,519.0,519.0,519.0,519.0,519.0,484.0,484.0,502.0,502.0,499.0,499.0,456.0,456.0,456.0,516.0,516.0,516.0,504.0,504.0,504.0,492.0,492.0,492.0,492.0,492.0,444.0,444.0,503.0,484.0,444.0,510.26666666666665,518.4888888888889,495.5111111111111,14.0,129.0,89.0,517.0,580.0,516.0
0,503.0,484.0,444.0,517.0,517.0,517.0,516.0,516.0,516.0,505.0,505.0,505.0,505.0,505.0,505.0,505.0,505.0,503.0,503.0,503.0,503.0,508.0,508.0,569.0,569.0,569.0,564.0,564.0,564.0,539.0,539.0,539.0,519.0,519.0,519.0,519.0,519.0,484.0,484.0,484.0,484.0,492.0,492.0,456.0,456.0,456.0,516.0,516.0,516.0,504.0,504.0,504.0,492.0,492.0,492.0,492.0,492.0,444.0,444.0,444.0,444.0,522.0,522.0,508.0,492.0,522.0,509.97777777777776,519.8222222222222,492.1111111111111,14.0,129.0,89.0,517.0,569.0,522.0
0,499.0,484.0,394.0,516.0,516.0,505.0,505.0,505.0,505.0,505.0,505.0,505.0,503.0,503.0,503.0,503.0,508.0,508.0,508.0,508.0,508.0,499.0,499.0,564.0,564.0,539.0,539.0,519.0,519.0,519.0,519.0,519.0,484.0,484.0,484.0,484.0,492.0,492.0,492.0,492.0,492.0,490.0,490.0,516.0,516.0,504.0,504.0,492.0,492.0,492.0,492.0,492.0,444.0,444.0,444.0,444.0,522.0,522.0,522.0,522.0,522.0,394.0,394.0,499.0,490.0,394.0,509.73333333333335,521.6444444444444,488.77777777777777,18.0,129.0,128.0,516.0,564.0,522.0
0,499.0,469.0,394.0,505.0,505.0,505.0,505.0,505.0,505.0,503.0,503.0,503.0,503.0,508.0,508.0,508.0,508.0,508.0,499.0,499.0,499.0,520.0,520.0,539.0,519.0,519.0,519.0,519.0,519.0,484.0,484.0,484.0,484.0,492.0,492.0,492.0,492.0,492.0,490.0,490.0,490.0,469.0,469.0,504.0,492.0,492.0,492.0,492.0,492.0,444.0,444.0,444.0,444.0,522.0,522.0,522.0,522.0,522.0,394.0,394.0,394.0,503.0,503.0,520.0,469.0,503.0,509.2888888888889,522.9333333333333,483.6666666666667,21.0,111.0,128.0,520.0,539.0,522.0
0,492.0,469.0,394.0,505.0,505.0,503.0,503.0,503.0,503.0,508.0,508.0,508.0,508.0,508.0,499.0,499.0,499.0,520.0,520.0,520.0,520.0,492.0,492.0,519.0,519.0,484.0,484.0,484.0,484.0,492.0,492.0,492.0,492.0,492.0,490.0,490.0,490.0,469.0,469.0,469.0,469.0,487.0,487.0,492.0,492.0,444.0,444.0,444.0,444.0,522.0,522.0,522.0,522.0,522.0,394.0,394.0,394.0,503.0,503.0,503.0,503.0,462.0,462.0,492.0,487.0,462.0,508.5777777777778,522.0888888888888,483.64444444444445,28.0,111.0,128.0,520.0,519.0,522.0
0,492.0,469.0,394.0,503.0,503.0,503.0,508.0,508.0,508.0,508.0,508.0,499.0,499.0,499.0,520.0,520.0,520.0,520.0,492.0,492.0,492.0,492.0,492.0,484.0,484.0,484.0,492.0,492.0,492.0,492.0,492.0,490.0,490.0,490.0,469.0,469.0,469.0,469.0,487.0,487.0,487.0,487.0,487.0,444.0,444.0,444.0,522.0,522.0,522.0,522.0,522.0,394.0,394.0,394.0,503.0,503.0,503.0,503.0,462.0,462.0,462.0,462.0,462.0,492.0,487.0,462.0,507.5777777777778,519.6888888888889,482.3777777777778,28.0,111.0,128.0,520.0,492.0,522.0
0,490.0,431.0,394.0,508.0,508.0,508.0,508.0,508.0,499.0,499.0,499.0,520.0,520.0,520.0,520.0,492.0,492.0,492.0,492.0,492.0,490.0,490.0,490.0,492.0,492.0,492.0,492.0,492.0,490.0,490.0,490.0,469.0,469.0,469.0,469.0,487.0,487.0,487.0,487.0,487.0,431.0,431.0,431.0,522.0,522.0,522.0,522.0,522.0,394.0,394.0,394.0,503.0,503.0,503.0,503.0,462.0,462.0,462.0,462.0,462.0,560.0,560.0,560.0,490.0,431.0,560.0,506.1111111111111,512.4666666666667,488.1333333333333,30.0,149.0,166.0,520.0,492.0,560.0
0,490.0,431.0,394.0,508.0,508.0,508.0,499.0,499.0,499.0,520.0,520.0,520.0,520.0,492.0,492.0,492.0,492.0,492.0,490.0,490.0,490.0,500.0,500.0,492.0,492.0,492.0,490.0,490.0,490.0,469.0,469.0,469.0,469.0,487.0,487.0,487.0,487.0,487.0,431.0,431.0,431.0,485.0,485.0,522.0,522.0,522.0,394.0,394.0,394.0,503.0,503.0,503.0,503.0,462.0,462.0,462.0,462.0,462.0,560.0,560.0,560.0,450.0,450.0,500.0,485.0,450.0,505.6222222222222,508.9555555555556,485.8222222222222,30.0,149.0,166.0,520.0,492.0,560.0
0,490.0,431.0,394.0,499.0,499.0,499.0,520.0,520.0,520.0,492.0,492.0,492.0,492.0,492.0,490.0,490.0,490.0,500.0,500.0,509.0,509.0,509.0,518.0,490.0,490.0,490.0,469.0,469.0,469.0,487.0,487.0,487.0,487.0,487.0,431.0,431.0,431.0,485.0,485.0,512.0,512.0,512.0,447.0,394.0,394.0,394.0,503.0,503.0,503.0,462.0,462.0,462.0,462.0,462.0,560.0,560.0,560.0,450.0,450.0,499.0,499.0,499.0,529.0,509.0,512.0,499.0,505.4888888888889,505.4888888888889,485.6222222222222,30.0,149.0,166.0,520.0,512.0,560.0
0,490.0,431.0,450.0,520.0,520.0,520.0,492.0,492.0,492.0,492.0,492.0,490.0,490.0,490.0,500.0,500.0,509.0,509.0,509.0,518.0,518.0,518.0,518.0,469.0,469.0,469.0,487.0,487.0,487.0,487.0,487.0,431.0,431.0,431.0,485.0,485.0,512.0,512.0,512.0,447.0,447.0,447.0,447.0,503.0,503.0,503.0,462.0,462.0,462.0,462.0,462.0,560.0,560.0,560.0,450.0,450.0,499.0,499.0,499.0,529.0,529.0,529.0,529.0,518.0,447.0,529.0,505.84444444444443,494.15555555555557,490.2,30.0,138.0,166.0,520.0,512.0,560.0
0,490.0,431.0,450.0,492.0,492.0,492.0,492.0,492.0,490.0,490.0,490.0,500.0,500.0,509.0,509.0,509.0,518.0,518.0,518.0,518.0,498.0,498.0,531.0,487.0,487.0,487.0,487.0,487.0,431.0,431.0,431.0,485.0,485.0,512.0,512.0,512.0,447.0,447.0,447.0,447.0,445.0,445.0,446.0,462.0,462.0,462.0,462.0,462.0,560.0,560.0,560.0,450.0,450.0,499.0,499.0,499.0,529.0,529.0,529.0,529.0,590.0,590.0,622.0,531.0,446.0,622.0,505.35555555555555,486.1333333333333,497.1777777777778,41.0,133.0,228.0,531.0,512.0,622.0
0,490.0,431.0,450.0,492.0,492.0,490.0,490.0,490.0,500.0,500.0,509.0,509.0,509.0,518.0,518.0,518.0,518.0,498.0,498.0,531.0,531.0,496.0,496.0,487.0,487.0,431.0,431.0,431.0,485.0,485.0,512.0,512.0,512.0,447.0,447.0,447.0,447.0,445.0,445.0,446.0,446.0,456.0,456.0,462.0,462.0,560.0,560.0,560.0,450.0,450.0,499.0,499.0,499.0,529.0,529.0,529.0,529.0,590.0,590.0,622.0,622.0,710.0,710.0,496.0,456.0,710.0,505.2888888888889,479.8222222222222,508.68888888888887,41.0,108.0,316.0,531.0,512.0,710.0
0,490.0,431.0,450.0,490.0,500.0,500.0,509.0,509.0,509.0,518.0,518.0,518.0,518.0,498.0,498.0,531.0,531.0,496.0,496.0,496.0,496.0,506.0,506.0,431.0,485.0,485.0,512.0,512.0,512.0,447.0,447.0,447.0,447.0,445.0,445.0,446.0,446.0,456.0,456.0,456.0,456.0,486.0,486.0,560.0,450.0,450.0,499.0,499.0,499.0,529.0,529.0,529.0,529.0,590.0,590.0,622.0,622.0,710.0,710.0,710.0,710.0,636.0,636.0,506.0,486.0,636.0,504.93333333333334,475.1111111111111,524.5111111111111,41.0,88.0,316.0,531.0,512.0,710.0
0,496.0,445.0,450.0,500.0,509.0,509.0,509.0,518.0,518.0,518.0,518.0,498.0,498.0,531.0,531.0,496.0,496.0,496.0,496.0,506.0,506.0,506.0,506.0,485.0,512.0,512.0,512.0,447.0,447.0,447.0,447.0,445.0,445.0,446.0,446.0,456.0,456.0,456.0,456.0,486.0,486.0,486.0,486.0,450.0,499.0,499.0,499.0,529.0,529.0,529.0,529.0,590.0,590.0,622.0,622.0,710.0,710.0,710.0,710.0,636.0,636.0,636.0,636.0,506.0,486.0,636.0,504.97777777777776,473.64444444444445,530.9111111111112,41.0,81.0,316.0,531.0,512.0,710.0
0,496.0,445.0,499.0,509.0,518.0,518.0,518.0,518.0,498.0,498.0,531.0,531.0,496.0,496.0,496.0,496.0,506.0,506.0,506.0,506.0,502.0,498.0,498.0,512.0,447.0,447.0,447.0,447.0,445.0,445.0,446.0,446.0,456.0,456.0,456.0,456.0,486.0,486.0,486.0,486.0,542.0,523.0,523.0,499.0,529.0,529.0,529.0,529.0,590.0,590.0,622.0,622.0,710.0,710.0,710.0,710.0,636.0,636.0,636.0,636.0,620.0,649.0,649.0,498.0,523.0,649.0,504.73333333333335,476.6666666666667,543.9333333333333,41.0,111.0,316.0,531.0,542.0,710.0
0,496.0,445.0,283.0,518.0,498.0,498.0,531.0,531.0,496.0,496.0,496.0,496.0,506.0,506.0,506.0,506.0,502.0,498.0,498.0,498.0,498.0,497.0,497.0,447.0,445.0,445.0,446.0,446.0,456.0,456.0,456.0,456.0,486.0,486.0,486.0,486.0,542.0,523.0,523.0,523.0,523.0,586.0,586.0,529.0,590.0,590.0,622.0,622.0,710.0,710.0,710.0,710.0,636.0,636.0,636.0,636.0,620.0,649.0,649.0,649.0,649.0,283.0,283.0,497.0,586.0,283.0,503.9111111111111,482.4,540.6888888888889,41.0,155.0,427.0,531.0,586.0,710.0
0,496.0,446.0,283.0,531.0,496.0,496.0,496.0,496.0,506.0,506.0,506.0,506.0,502.0,498.0,498.0,498.0,498.0,497.0,497.0,497.0,497.0,526.0,526.0,446.0,456.0,456.0,456.0,456.0,486.0,486.0,486.0,486.0,542.0,523.0,523.0,523.0,523.0,586.0,586.0,586.0,586.0,552.0,552.0,622.0,710.0,710.0,710.0,710.0,636.0,636.0,636.0,636.0,620.0,649.0,649.0,649.0,649.0,283.0,283.0,283.0,283.0,501.0,501.0,526.0,552.0,501.0,504.6222222222222,489.3333333333333,534.8222222222222,41.0,155.0,427.0,531.0,586.0,710.0
0,496.0,456.0,283.0,496.0,506.0,506.0,506.0,506.0,502.0,498.0,498.0,498.0,498.0,497.0,497.0,497.0,497.0,526.0,526.0,526.0,526.0,508.0,508.0,456.0,486.0,486.0,486.0,486.0,542.0,523.0,523.0,523.0,523.0,586.0,586.0,586.0,586.0,552.0,552.0,552.0,552.0,564.0,564.0,710.0,636.0,636.0,636.0,636.0,620.0,649.0,649.0,649.0,649.0,283.0,283.0,283.0,283.0,501.0,501.0,501.0,501.0,490.0,490.0,508.0,564.0,490.0,504.8222222222222,496.77777777777777,536.5777777777778,41.0,155.0,427.0,526.0,586.0,710.0
0,482.0,486.0,283.0,506.0,502.0,498.0,498.0,498.0,498.0,497.0,497.0,497.0,497.0,526.0,526.0,526.0,526.0,508.0,508.0,508.0,508.0,482.0,482.0,486.0,542.0,523.0,523.0,523.0,523.0,586.0,586.0,586.0,586.0,552.0,552.0,552.0,552.0,564.0,564.0,564.0,564.0,583.0,583.0,636.0,620.0,649.0,649.0,649.0,649.0,283.0,283.0,283.0,283.0,501.0,501.0,501.0,501.0,490.0,490.0,490.0,490.0,431.0,431.0,482.0,583.0,431.0,504.46666666666664,504.8666666666667,535.5333333333333,49.0,155.0,427.0,526.0,586.0,649.0
0,482.0,504.0,283.0,498.0,498.0,498.0,497.0,497.0,497.0,497.0,526.0,526.0,526.0,526.0,508.0,508.0,508.0,508.0,482.0,482.0,482.0,482.0,502.0,523.0,523.0,523.0,586.0,586.0,586.0,586.0,552.0,552.0,552.0,552.0,564.0,564.0,564.0,564.0,583.0,583.0,583.0,583.0,504.0,649.0,649.0,649.0,283.0,283.0,283.0,283.0,501.0,501.0,501.0,501.0,490.0,490.0,490.0,490.0,431.0,431.0,431.0,431.0,467.0,502.0,504.0,467.0,504.2888888888889,510.75555555555553,532.0888888888888,49.0,155.0,427.0,526.0,586.0,649.0
0,482.0,469.0,283.0,497.0,497.0,497.0,526.0,526.0,526.0,526.0,508.0,508.0,508.0,508.0,482.0,482.0,482.0,482.0,502.0,502.0,502.0,502.0,503.0,586.0,586.0,586.0,552.0,552.0,552.0,552.0,564.0,564.0,564.0,564.0,583.0,583.0,583.0,583.0,504.0,504.0,504.0,504.0,469.0,283.0,283.0,283.0,501.0,501.0,501.0,501.0,490.0,490.0,490.0,490.0,431.0,431.0,431.0,431.0,467.0,467.0,467.0,467.0,525.0,503.0,469.0,525.0,504.93333333333334,514.0666666666667,530.0,49.0,141.0,427.0,526.0,586.0,525.0
0,482.0,469.0,431.0,526.0,526.0,526.0,526.0,508.0,508.0,508.0,508.0,482.0,482.0,482.0,482.0,502.0,502.0,502.0,502.0,503.0,503.0,503.0,500.0,552.0,552.0,552.0,552.0,564.0,564.0,564.0,564.0,583.0,583.0,583.0,583.0,504.0,504.0,504.0,504.0,469.0,469.0,469.0,495.0,501.0,501.0,501.0,501.0,490.0,490.0,490.0,490.0,431.0,431.0,431.0,431.0,467.0,467.0,467.0,467.0,525.0,525.0,525.0,475.0,500.0,495.0,475.0,504.46666666666664,511.77777777777777,530.6222222222223,49.0,141.0,427.0,526.0,583.0,525.0
0,482.0,469.0,431.0,526.0,508.0,508.0,508.0,508.0,482.0,482.0,482.0,482.0,502.0,502.0,502.0,502.0,503.0,503.0,503.0,500.0,500.0,510.0,510.0,552.0,564.0,564.0,564.0,564.0,583.0,583.0,583.0,583.0,504.0,504.0,504.0,504.0,469.0,469.0,469.0,495.0,495.0,494.0,494.0,501.0,490.0,490.0,490.0,490.0,431.0,431.0,431.0,431.0,467.0,467.0,467.0,467.0,525.0,525.0,525.0,475.0,475.0,588.0,588.0,510.0,494.0,588.0,503.4888888888889,514.9555555555555,529.5333333333333,49.0,141.0,427.0,526.0,583.0,588.0
0,482.0,469.0,431.0,482.0,482.0,482.0,482.0,502.0,502.0,502.0,502.0,503.0,503.0,503.0,500.0,500.0,500.0,510.0,510.0,510.0,510.0,497.0,497.0,583.0,583.0,583.0,583.0,504.0,504.0,504.0,504.0,469.0,469.0,469.0,495.0,495.0,495.0,494.0,494.0,494.0,494.0,502.0,502.0,431.0,431.0,431.0,431.0,467.0,467.0,467.0,467.0,525.0,525.0,525.0,475.0,475.0,475.0,588.0,588.0,588.0,588.0,467.0,467.0,497.0,502.0,467.0,502.3333333333333,520.6666666666666,523.8666666666667,44.0,130.0,427.0,510.0,583.0,588.0
0,482.0,469.0,431.0,482.0,502.0,502.0,502.0,502.0,503.0,503.0,503.0,500.0,500.0,500.0,510.0,510.0,510.0,510.0,497.0,497.0,497.0,497.0,497.0,583.0,504.0,504.0,504.0,504.0,469.0,469.0,469.0,495.0,495.0,495.0,494.0,494.0,494.0,494.0,502.0,502.0,502.0,496.0,496.0,431.0,467.0,467.0,467.0,467.0,525.0,525.0,525.0,475.0,475.0,475.0,588.0,588.0,588.0,588.0,467.0,467.0,467.0,485.0,485.0,497.0,496.0,485.0,502.4,523.4666666666667,508.46666666666664,44.0,130.0,427.0,510.0,583.0,588.0
0,491.0,469.0,457.0,502.0,502.0,503.0,503.0,503.0,500.0,500.0,500.0,510.0,510.0,510.0,510.0,497.0,497.0,497.0,497.0,497.0,497.0,491.0,491.0,504.0,504.0,469.0,469.0,469.0,495.0,495.0,495.0,494.0,494.0,494.0,494.0,502.0,502.0,502.0,496.0,496.0,496.0,504.0,504.0,467.0,467.0,525.0,525.0,525.0,475.0,475.0,475.0,588.0,588.0,588.0,588.0,467.0,467.0,467.0,485.0,485.0,485.0,457.0,457.0,491.0,504.0,457.0,501.75555555555553,525.1555555555556,495.5111111111111,44.0,117.0,366.0,510.0,504.0,588.0
0,491.0,469.0,457.0,503.0,503.0,500.0,500.0,500.0,510.0,510.0,510.0,510.0,497.0,497.0,497.0,497.0,497.0,497.0,491.0,491.0,491.0,506.0,506.0,469.0,469.0,495.0,495.0,495.0,494.0,494.0,494.0,494.0,502.0,502.0,502.0,496.0,496.0,496.0,504.0,504.0,504.0,507.0,507.0,525.0,525.0,475.0,475.0,475.0,588.0,588.0,588.0,588.0,467.0,467.0,467.0,485.0,485.0,485.0,457.0,457.0,457.0,516.0,516.0,506.0,507.0,516.0,501.1777777777778,525.1777777777778,485.24444444444447,44.0,117.0,366.0,510.0,507.0,588.0
0,491.0,494.0,457.0,500.0,510.0,510.0,510.0,510.0,497.0,497.0,497.0,497.0,497.0,497.0,491.0,491.0,491.0,491.0,506.0,506.0,506.0,506.0,513.0,495.0,494.0,494.0,494.0,494.0,502.0,502.0,502.0,496.0,496.0,496.0,504.0,504.0,504.0,504.0,507.0,507.0,507.0,507.0,511.0,475.0,588.0,588.0,588.0,588.0,467.0,467.0,467.0,485.0,485.0,485.0,457.0,457.0,457.0,457.0,516.0,516.0,516.0,516.0,557.0,513.0,511.0,557.0,502.0444444444444,523.8444444444444,474.3333333333333,44.0,117.0,305.0,513.0,511.0,588.0
0,491.0,492.0,375.0,510.0,510.0,497.0,497.0,497.0,497.0,497.0,497.0,491.0,491.0,491.0,491.0,506.0,506.0,506.0,506.0,513.0,513.0,518.0,518.0,494.0,494.0,502.0,502.0,502.0,496.0,496.0,496.0,504.0,504.0,504.0,504.0,507.0,507.0,507.0,507.0,511.0,511.0,492.0,492.0,588.0,588.0,467.0,467.0,467.0,485.0,485.0,485.0,457.0,457.0,457.0,457.0,516.0,516.0,516.0,516.0,557.0,557.0,375.0,375.0,518.0,492.0,375.0,503.3333333333333,518.0,484.5111111111111,44.0,117.0,305.0,518.0,511.0,588.0
0,491.0,474.0,375.0,497.0,497.0,497.0,497.0,497.0,491.0,491.0,491.0,491.0,506.0,506.0,506.0,506.0,513.0,513.0,518.0,518.0,518.0,501.0,501.0,502.0,502.0,496.0,496.0,496.0,504.0,504.0,504.0,504.0,507.0,507.0,507.0,507.0,511.0,511.0,492.0,492.0,492.0,474.0,474.0,467.0,467.0,485.0,485.0,485.0,457.0,457.0,457.0,457.0,516.0,516.0,516.0,516.0,557.0,557.0,375.0,375.0,375.0,443.0,443.0,501.0,474.0,443.0,502.68888888888887,512.4444444444445,483.97777777777776,44.0,114.0,213.0,518.0,511.0,557.0
0,491.0,474.0,375.0,497.0,491.0,491.0,491.0,491.0,506.0,506.0,506.0,506.0,513.0,513.0,518.0,518.0,518.0,501.0,501.0,501.0,501.0,502.0,502.0,496.0,504.0,504.0,504.0,504.0,507.0,507.0,507.0,507.0,511.0,511.0,492.0,492.0,492.0,474.0,474.0,474.0,474.0,485.0,485.0,485.0,457.0,457.0,457.0,457.0,516.0,516.0,516.0,516.0,557.0,557.0,375.0,375.0,375.0,443.0,443.0,443.0,443.0,440.0,440.0,502.0,485.0,440.0,501.31111111111113,505.46666666666664,479.1777777777778,36.0,114.0,213.0,518.0,511.0,557.0
0,491.0,463.0,375.0,491.0,506.0,506.0,506.0,506.0,513.0,513.0,518.0,518.0,518.0,501.0,501.0,501.0,501.0,502.0,502.0,502.0,502.0,505.0,505.0,504.0,507.0,507.0,507.0,507.0,511.0,511.0,492.0,492.0,492.0,474.0,474.0,474.0,474.0,485.0,485.0,485.0,485.0,463.0,463.0,457.0,516.0,516.0,516.0,516.0,557.0,557.0,375.0,375.0,375.0,443.0,443.0,443.0,443.0,440.0,440.0,440.0,440.0,407.0,407.0,505.0,463.0,407.0,502.06666666666666,496.6222222222222,475.8888888888889,36.0,120.0,213.0,518.0,511.0,557.0
0,498.0,463.0,375.0,506.0,506.0,513.0,513.0,518.0,518.0,518.0,501.0,501.0,501.0,501.0,502.0,502.0,502.0,502.0,505.0,505.0,505.0,498.0,498.0,507.0,507.0,511.0,511.0,492.0,492.0,492.0,474.0,474.0,474.0,474.0,485.0,485.0,485.0,485.0,463.0,463.0,463.0,496.0,496.0,516.0,516.0,557.0,557.0,375.0,375.0,375.0,443.0,443.0,443.0,443.0,440.0,440.0,440.0,440.0,407.0,407.0,407.0,497.0,497.0,498.0,496.0,497.0,502.84444444444443,491.84444444444443,477.4888888888889,27.0,48.0,213.0,518.0,511.0,557.0
0,498.0,463.0,375.0,513.0,513.0,518.0,518.0,518.0,501.0,501.0,501.0,501.0,502.0,502.0,502.0,502.0,505.0,505.0,505.0,498.0,498.0,498.0,498.0,511.0,511.0,492.0,492.0,492.0,474.0,474.0,474.0,474.0,485.0,485.0,485.0,485.0,463.0,463.0,463.0,496.0,496.0,496.0,496.0,557.0,557.0,375.0,375.0,375.0,443.0,443.0,443.0,443.0,440.0,440.0,440.0,440.0,407.0,407.0,407.0,497.0,497.0,497.0,497.0,498.0,496.0,497.0,502.6666666666667,491.4888888888889,478.8222222222222,27.0,48.0,213.0,518.0,511.0,557.0
0,498.0,463.0,375.0,518.0,501.0,501.0,501.0,501.0,502.0,502.0,502.0,502.0,505.0,505.0,505.0,498.0,498.0,498.0,498.0,507.0,507.0,510.0,510.0,492.0,474.0,474.0,474.0,474.0,485.0,485.0,485.0,485.0,463.0,463.0,463.0,496.0,496.0,496.0,496.0,495.0,495.0,473.0,473.0,375.0,443.0,443.0,443.0,443.0,440.0,440.0,440.0,440.0,407.0,407.0,407.0,497.0,497.0,497.0,497.0,580.0,580.0,482.0,482.0,510.0,473.0,482.0,503.1777777777778,492.0444444444444,480.64444444444445,27.0,48.0,213.0,518.0,496.0,580.0
0,498.0,453.0,407.0,501.0,502.0,502.0,502.0,502.0,505.0,505.0,505.0,498.0,498.0,498.0,498.0,507.0,507.0,510.0,510.0,510.0,510.0,513.0,513.0,474.0,485.0,485.0,485.0,485.0,463.0,463.0,463.0,496.0,496.0,496.0,496.0,495.0,495.0,473.0,473.0,473.0,473.0,453.0,453.0,443.0,440.0,440.0,440.0,440.0,407.0,407.0,407.0,497.0,497.0,497.0,497.0,580.0,580.0,482.0,482.0,482.0,482.0,494.0,494.0,513.0,453.0,494.0,503.97777777777776,489.22222222222223,479.2888888888889,27.0,58.0,213.0,513.0,496.0,580.0
0,498.0,453.0,407.0,502.0,502.0,505.0,505.0,505.0,498.0,498.0,498.0,498.0,507.0,507.0,510.0,510.0,510.0,510.0,513.0,513.0,513.0,513.0,517.0,485.0,485.0,463.0,463.0,463.0,496.0,496.0,496.0,496.0,495.0,495.0,473.0,473.0,473.0,473.0,453.0,453.0,453.0,453.0,468.0,440.0,440.0,407.0,407.0,407.0,497.0,497.0,497.0,497.0,580.0,580.0,482.0,482.0,482.0,482.0,494.0,494.0,494.0,494.0,506.0,517.0,468.0,506.0,504.26666666666665,486.8222222222222,473.2888888888889,27.0,58.0,205.0,517.0,496.0,580.0
0,498.0,453.0,407.0,505.0,498.0,498.0,498.0,498.0,507.0,507.0,510.0,510.0,510.0,510.0,513.0,513.0,513.0,513.0,517.0,517.0,517.0,514.0,514.0,463.0,496.0,496.0,496.0,496.0,495.0,495.0,473.0,473.0,473.0,473.0,453.0,453.0,453.0,453.0,468.0,468.0,468.0,533.0,533.0,407.0,497.0,497.0,497.0,497.0,580.0,580.0,482.0,482.0,482.0,482.0,494.0,494.0,494.0,494.0,506.0,506.0,506.0,556.0,556.0,514.0,533.0,556.0,505.9111111111111,486.8222222222222,478.5777777777778,27.0,80.0,205.0,517.0,533.0,580.0
0,498.0,453.0,267.0,498.0,507.0,507.0,510.0,510.0,510.0,510.0,513.0,513.0,513.0,513.0,517.0,517.0,517.0,514.0,514.0,514.0,514.0,515.0,515.0,496.0,495.0,495.0,473.0,473.0,473.0,473.0,453.0,453.0,453.0,453.0,468.0,468.0,468.0,533.0,533.0,533.0,533.0,623.0,623.0,497.0,580.0,580.0,482.0,482.0,482.0,482.0,494.0,494.0,494.0,494.0,506.0,506.0,506.0,556.0,556.0,556.0,556.0,267.0,267.0,515.0,623.0,267.0,507.73333333333335,493.75555555555553,473.2888888888889,27.0,170.0,313.0,517.0,623.0,580.0
0,510.0,453.0,267.0,510.0,510.0,510.0,513.0,513.0,513.0,513.0,517.0,517.0,517.0,514.0,514.0,514.0,514.0,515.0,515.0,515.0,515.0,521.0,521.0,473.0,473.0,473.0,453.0,453.0,453.0,453.0,468.0,468.0,468.0,533.0,533.0,533.0,533.0,623.0,623.0,623.0,623.0,781.0,781.0,482.0,482.0,482.0,494.0,494.0,494.0,494.0,506.0,506.0,506.0,556.0,556.0,556.0,556.0,267.0,267.0,267.0,267.0,276.0,276.0,521.0,781.0,276.0,509.46666666666664,511.22222222222223,454.1777777777778,23.0,328.0,313.0,521.0,781.0,556.0
0,513.0,453.0,267.0,513.0,513.0,513.0,517.0,517.0,517.0,514.0,514.0,514.0,514.0,515.0,515.0,515.0,515.0,521.0,521.0,521.0,521.0,517.0,517.0,453.0,453.0,453.0,468.0,468.0,468.0,533.0,533.0,533.0,533.0,623.0,623.0,623.0,623.0,781.0,781.0,781.0,781.0,688.0,688.0,494.0,494.0,494.0,506.0,506.0,506.0,556.0,556.0,556.0,556.0,267.0,267.0,267.0,267.0,276.0,276.0,276.0,276.0,410.0,410.0,517.0,688.0,410.0,510.31111111111113,531.2666666666667,436.97777777777776,23.0,328.0,313.0,521.0,781.0,556.0
0,501.0,468.0,267.0,517.0,517.0,514.0,514.0,514.0,514.0,515.0,515.0,515.0,515.0,521.0,521.0,521.0,521.0,517.0,517.0,517.0,517.0,501.0,501.0,468.0,468.0,533.0,533.0,533.0,533.0,623.0,623.0,623.0,623.0,781.0,781.0,781.0,781.0,688.0,688.0,688.0,688.0,632.0,632.0,506.0,506.0,556.0,556.0,556.0,556.0,267.0,267.0,267.0,267.0,276.0,276.0,276.0,276.0,410.0,410.0,410.0,410.0,659.0,659.0,501.0,632.0,659.0,509.8888888888889,546.6,449.64444444444445,23.0,328.0,392.0,521.0,781.0,659.0
0,501.0,533.0,267.0,514.0,514.0,514.0,515.0,515.0,515.0,515.0,521.0,521.0,521.0,521.0,517.0,517.0,517.0,517.0,501.0,501.0,501.0,506.0,506.0,533.0,533.0,533.0,623.0,623.0,623.0,623.0,781.0,781.0,781.0,781.0,688.0,688.0,688.0,688.0,632.0,632.0,632.0,624.0,624.0,556.0,556.0,556.0,267.0,267.0,267.0,267.0,276.0,276.0,276.0,276.0,410.0,410.0,410.0,410.0,659.0,659.0,659.0,876.0,876.0,506.0,624.0,876.0,510.1111111111111,556.7777777777778,473.68888888888887,23.0,328.0,609.0,521.0,781.0,876.0
0,478.0,556.0,267.0,515.0,515.0,515.0,515.0,521.0,521.0,521.0,521.0,517.0,517.0,517.0,517.0,501.0,501.0,501.0,506.0,506.0,506.0,506.0,478.0,623.0,623.0,623.0,623.0,781.0,781.0,781.0,781.0,688.0,688.0,688.0,688.0,632.0,632.0,632.0,624.0,624.0,624.0,624.0,556.0,267.0,267.0,267.0,267.0,276.0,276.0,276.0,276.0,410.0,410.0,410.0,410.0,659.0,659.0,659.0,876.0,876.0,876.0,876.0,1022.0,478.0,556.0,1022.0,509.75555555555553,564.5333333333333,506.0,43.0,328.0,755.0,521.0,781.0,1022.0
0,478.0,399.0,267.0,515.0,521.0,521.0,521.0,521.0,517.0,517.0,517.0,517.0,501.0,501.0,501.0,506.0,506.0,506.0,506.0,478.0,478.0,525.0,525.0,623.0,781.0,781.0,781.0,781.0,688.0,688.0,688.0,688.0,632.0,632.0,632.0,624.0,624.0,624.0,624.0,556.0,556.0,399.0,399.0,267.0,276.0,276.0,276.0,276.0,410.0,410.0,410.0,410.0,659.0,659.0,659.0,876.0,876.0,876.0,876.0,1022.0,1022.0,1021.0,1021.0,525.0,399.0,1021.0,510.1111111111111,563.2666666666667,546.2222222222222,47.0,382.0,755.0,525.0,781.0,1022.0
0,478.0,399.0,276.0,521.0,521.0,517.0,517.0,517.0,517.0,501.0,501.0,501.0,506.0,506.0,506.0,506.0,478.0,478.0,525.0,525.0,525.0,497.0,497.0,781.0,781.0,688.0,688.0,688.0,688.0,632.0,632.0,632.0,624.0,624.0,624.0,624.0,556.0,556.0,399.0,399.0,399.0,424.0,424.0,276.0,276.0,410.0,410.0,410.0,410.0,659.0,659.0,659.0,876.0,876.0,876.0,876.0,1022.0,1022.0,1021.0,1021.0,1021.0,660.0,660.0,497.0,424.0,660.0,510.5111111111111,558.6444444444444,567.1111111111111,47.0,382.0,755.0,525.0,781.0,1022.0
0,478.0,399.0,298.0,517.0,517.0,501.0,501.0,501.0,506.0,506.0,506.0,506.0,478.0,478.0,525.0,525.0,525.0,497.0,497.0,497.0,497.0,491.0,491.0,688.0,688.0,632.0,632.0,632.0,624.0,624.0,624.0,624.0,556.0,556.0,399.0,399.0,399.0,424.0,424.0,424.0,424.0,702.0,702.0,410.0,410.0,659.0,659.0,659.0,876.0,876.0,876.0,876.0,1022.0,1022.0,1021.0,1021.0,1021.0,660.0,660.0,660.0,660.0,298.0,298.0,491.0,702.0,298.0,509.75555555555553,564.6444444444444,561.8222222222222,47.0,382.0,755.0,525.0,702.0,1022.0
0,478.0,399.0,1.0,501.0,506.0,506.0,506.0,506.0,478.0,478.0,525.0,525.0,525.0,497.0,497.0,497.0,497.0,491.0,491.0,491.0,491.0,500.0,500.0,632.0,624.0,624.0,624.0,624.0,556.0,556.0,399.0,399.0,399.0,424.0,424.0,424.0,424.0,702.0,702.0,702.0,702.0,555.0,555.0,659.0,876.0,876.0,876.0,876.0,1022.0,1022.0,1021.0,1021.0,1021.0,660.0,660.0,660.0,660.0,298.0,298.0,298.0,298.0,1.0,1.0,500.0,555.0,1.0,508.46666666666664,578.4666666666667,532.2666666666667,47.0,382.0,1021.0,525.0,702.0,1022.0
0,478.0,399.0,1.0,506.0,478.0,478.0,525.0,525.0,525.0,497.0,497.0,497.0,497.0,491.0,491.0,491.0,491.0,500.0,500.0,500.0,500.0,512.0,512.0,624.0,556.0,556.0,399.0,399.0,399.0,424.0,424.0,424.0,424.0,702.0,702.0,702.0,702.0,555.0,555.0,555.0,555.0,542.0,542.0,876.0,1022.0,1022.0,1021.0,1021.0,1021.0,660.0,660.0,660.0,660.0,298.0,298.0,298.0,298.0,1.0,1.0,1.0,1.0,1.0,1.0,512.0,542.0,1.0,507.84444444444443,586.9555555555555,488.44444444444446,47.0,382.0,1021.0,525.0,702.0,1022.0
0,491.0,399.0,1.0,525.0,525.0,525.0,497.0,497.0,497.0,497.0,491.0,491.0,491.0,491.0,500.0,500.0,500.0,500.0,512.0,512.0,512.0,568.0,568.0,399.0,399.0,399.0,424.0,424.0,424.0,424.0,702.0,702.0,702.0,702.0,555.0,555.0,555.0,555.0,542.0,542.0,542.0,499.0,499.0,1021.0,1021.0,1021.0,660.0,660.0,660.0,660.0,298.0,298.0,298.0,298.0,1.0,1.0,1.0,1.0,1.0,1.0,1.0,131.0,131.0,568.0,499.0,131.0,510.0,589.9777777777778,460.55555555555554,90.0,382.0,1021.0,568.0,702.0,1021.0
0,491.0,424.0,1.0,497.0,497.0,497.0,497.0,491.0,491.0,491.0,491.0,500.0,500.0,500.0,500.0,512.0,512.0,512.0,568.0,568.0,568.0,568.0,493.0,424.0,424.0,424.0,424.0,702.0,702.0,702.0,702.0,555.0,555.0,555.0,555.0,542.0,542.0,542.0,499.0,499.0,499.0,499.0,453.0,660.0,660.0,660.0,660.0,298.0,298.0,298.0,298.0,1.0,1.0,1.0,1.0,1.0,1.0,1.0,131.0,131.0,131.0,131.0,335.0,493.0,453.0,335.0,511.93333333333334,586.6888888888889,436.75555555555553,90.0,382.0,1021.0,568.0,702.0,660.0
0,491.0,60.0,1.0,491.0,491.0,491.0,491.0,500.0,500.0,500.0,500.0,512.0,512.0,512.0,568.0,568.0,568.0,568.0,493.0,493.0,493.0,493.0,496.0,702.0,702.0,702.0,702.0,555.0,555.0,555.0,555.0,542.0,542.0,542.0,499.0,499.0,499.0,499.0,453.0,453.0,453.0,453.0,60.0,298.0,298.0,298.0,298.0,1.0,1.0,1.0,1.0,1.0,1.0,1.0,131.0,131.0,131.0,131.0,335.0,335.0,335.0,335.0,548.0,496.0,60.0,548.0,510.06666666666666,564.8444444444444,441.1111111111111,90.0,721.0,1021.0,568.0,702.0,548.0
0,493.0,0.0,1.0,500.0,500.0,500.0,500.0,512.0,512.0,512.0,568.0,568.0,568.0,568.0,493.0,493.0,493.0,493.0,496.0,496.0,496.0,517.0,517.0,555.0,555.0,555.0,555.0,542.0,542.0,542.0,499.0,499.0,499.0,499.0,453.0,453.0,453.0,453.0,60.0,60.0,60.0,0.0,0.0,1.0,1.0,1.0,1.0,1.0,1.0,1.0,131.0,131.0,131.0,131.0,335.0,335.0,335.0,335.0,548.0,548.0,548.0,506.0,506.0,517.0,0.0,506.0,508.9111111111111,501.6,463.6222222222222,90.0,781.0,1021.0,568.0,555.0,548.0
0,493.0,0.0,1.0,500.0,512.0,512.0,512.0,568.0,568.0,568.0,568.0,493.0,493.0,493.0,493.0,496.0,496.0,496.0,517.0,517.0,517.0,502.0,502.0,555.0,542.0,542.0,542.0,499.0,499.0,499.0,499.0,453.0,453.0,453.0,453.0,60.0,60.0,60.0,0.0,0.0,0.0,726.0,726.0,1.0,1.0,1.0,1.0,131.0,131.0,131.0,131.0,335.0,335.0,335.0,335.0,548.0,548.0,548.0,506.0,506.0,506.0,407.0,407.0,502.0,726.0,407.0,508.15555555555557,485.93333333333334,468.6,90.0,726.0,1021.0,568.0,726.0,548.0
0,493.0,0.0,1.0,512.0,568.0,568.0,568.0,568.0,493.0,493.0,493.0,493.0,496.0,496.0,496.0,517.0,517.0,517.0,502.0,502.0,502.0,500.0,500.0,542.0,499.0,499.0,499.0,499.0,453.0,453.0,453.0,453.0,60.0,60.0,60.0,0.0,0.0,0.0,726.0,726.0,726.0,1022.0,1022.0,1.0,131.0,131.0,131.0,131.0,335.0,335.0,335.0,335.0,548.0,548.0,548.0,506.0,506.0,506.0,407.0,407.0,407.0,1.0,1.0,500.0,1022.0,1.0,507.4222222222222,502.8666666666667,444.8222222222222,90.0,1022.0,1021.0,568.0,1022.0,548.0
0,493.0,0.0,0.0,568.0,493.0,493.0,493.0,493.0,496.0,496.0,496.0,517.0,517.0,517.0,502.0,502.0,502.0,500.0,500.0,500.0,500.0,500.0,523.0,499.0,453.0,453.0,453.0,453.0,60.0,60.0,60.0,0.0,0.0,0.0,726.0,726.0,726.0,1022.0,1022.0,1022.0,1022.0,1022.0,1022.0,131.0,335.0,335.0,335.0,335.0,548.0,548.0,548.0,506.0,506.0,506.0,407.0,407.0,407.0,1.0,1.0,1.0,1.0,1.0,0.0,523.0,1022.0,0.0,507.6222222222222,537.8888888888889,376.6666666666667,90.0,1022.0,1022.0,568.0,1022.0,548.0
0,496.0,0.0,0.0,496.0,496.0,496.0,517.0,517.0,517.0,502.0,502.0,502.0,500.0,500.0,500.0,500.0,500.0,523.0,523.0,523.0,523.0,505.0,505.0,60.0,60.0,60.0,0.0,0.0,0.0,726.0,726.0,726.0,1022.0,1022.0,1022.0,1022.0,1022.0,1022.0,1022.0,1022.0,1022.0,1022.0,1022.0,548.0,548.0,548.0,506.0,506.0,506.0,407.0,407.0,407.0,1.0,1.0,1.0,1.0,1.0,0.0,0.0,0.0,0.0,0.0,0.0,505.0,1022.0,0.0,509.53333333333336,590.1333333333333,269.6222222222222,77.0,1022.0,1021.0,523.0,1022.0,548.0
0,500.0,0.0,0.0,517.0,517.0,502.0,502.0,502.0,500.0,500.0,500.0,500.0,500.0,523.0,523.0,523.0,523.0,505.0,505.0,505.0,505.0,547.0,547.0,0.0,0.0,726.0,726.0,726.0,1022.0,1022.0,1022.0,1022.0,1022.0,1022.0,1022.0,1022.0,1022.0,1022.0,1022.0,1022.0,1022.0,1021.0,1021.0,506.0,506.0,407.0,407.0,407.0,1.0,1.0,1.0,1.0,1.0,0.0,0.0,0.0,0.0,0.0,0.0,0.0,0.0,0.0,0.0,547.0,1021.0,0.0,510.8666666666667,644.3555555555556,194.9111111111111,77.0,1022.0,660.0,547.0,1022.0,506.0
0,500.0,726.0,0.0,502.0,500.0,500.0,500.0,500.0,500.0,523.0,523.0,523.0,523.0,505.0,505.0,505.0,505.0,547.0,547.0,547.0,547.0,509.0,509.0,726.0,1022.0,1022.0,1022.0,1022.0,1022.0,1022.0,1022.0,1022.0,1022.0,1022.0,1022.0,1022.0,1022.0,1021.0,1021.0,1021.0,1021.0,1022.0,1022.0,407.0,1.0,1.0,1.0,1.0,1.0,0.0,0.0,0.0,0.0,0.0,0.0,0.0,0.0,0.0,0.0,0.0,0.0,1.0,1.0,509.0,1022.0,1.0,513.8888888888889,685.1111111111111,152.37777777777777,77.0,1022.0,548.0,547.0,1022.0,407.0
0,500.0,1021.0,0.0,500.0,500.0,500.0,523.0,523.0,523.0,523.0,505.0,505.0,505.0,505.0,547.0,547.0,547.0,547.0,509.0,509.0,509.0,545.0,545.0,1022.0,1022.0,1022.0,1022.0,1022.0,1022.0,1022.0,1022.0,1022.0,1022.0,1022.0,1021.0,1021.0,1021.0,1021.0,1022.0,1022.0,1022.0,1021.0,1021.0,1.0,1.0,1.0,0.0,0.0,0.0,0.0,0.0,0.0,0.0,0.0,0.0,0.0,0.0,0.0,1.0,1.0,1.0,1.0,1.0,545.0,1021.0,1.0,516.4888888888889,709.6666666666666,139.17777777777778,75.0,1022.0,548.0,547.0,1022.0,1.0
0,505.0,1021.0,0.0,523.0,523.0,523.0,505.0,505.0,505.0,505.0,547.0,547.0,547.0,547.0,509.0,509.0,509.0,545.0,545.0,545.0,545.0,520.0,520.0,1022.0,1022.0,1022.0,1022.0,1022.0,1022.0,1022.0,1021.0,1021.0,1021.0,1021.0,1022.0,1022.0,1022.0,1021.0,1021.0,1021.0,1021.0,1022.0,1022.0,0.0,0.0,0.0,0.0,0.0,0.0,0.0,0.0,0.0,0.0,0.0,1.0,1.0,1.0,1.0,1.0,1.0,1.0,0.0,0.0,520.0,1022.0,0.0,519.1111111111111,751.4222222222222,139.13333333333333,75.0,1022.0,548.0,547.0,1022.0,1.0
0,493.0,1021.0,0.0,505.0,505.0,505.0,547.0,547.0,547.0,547.0,509.0,509.0,509.0,545.0,545.0,545.0,545.0,520.0,520.0,520.0,520.0,493.0,493.0,1022.0,1022.0,1022.0,1021.0,1021.0,1021.0,1021.0,1022.0,1022.0,1022.0,1021.0,1021.0,1021.0,1021.0,1022.0,1022.0,1022.0,1022.0,1021.0,1021.0,0.0,0.0,0.0,0.0,0.0,0.0,0.0,1.0,1.0,1.0,1.0,1.0,1.0,1.0,0.0,0.0,0.0,0.0,1.0,1.0,493.0,1021.0,1.0,516.1333333333333,795.9555555555555,133.3111111111111,75.0,1022.0,548.0,547.0,1022.0,1.0
0,493.0,1020.0,0.0,547.0,547.0,547.0,509.0,509.0,509.0,545.0,545.0,545.0,545.0,520.0,520.0,520.0,520.0,493.0,493.0,493.0,493.0,572.0,572.0,1021.0,1021.0,1021.0,1022.0,1022.0,1022.0,1021.0,1021.0,1021.0,1021.0,1022.0,1022.0,1022.0,1022.0,1021.0,1021.0,1021.0,1020.0,1020.0,1020.0,0.0,0.0,0.0,1.0,1.0,1.0,1.0,1.0,1.0,1.0,0.0,0.0,0.0,0.0,1.0,1.0,1.0,1.0,1.0,1.0,572.0,1020.0,1.0,516.3111111111111,844.3555555555556,112.68888888888888,79.0,1022.0,548.0,572.0,1022.0,1.0
0,493.0,820.0,0.0,509.0,545.0,545.0,545.0,545.0,520.0,520.0,520.0,520.0,493.0,493.0,493.0,493.0,572.0,572.0,572.0,572.0,572.0,508.0,508.0,1022.0,1021.0,1021.0,1021.0,1021.0,1022.0,1022.0,1022.0,1022.0,1021.0,1021.0,1021.0,1021.0,1020.0,1020.0,1020.0,1020.0,1020.0,820.0,820.0,1.0,1.0,1.0,1.0,1.0,0.0,0.0,0.0,0.0,1.0,1.0,1.0,1.0,1.0,1.0,1.0,1.0,1.0,94.0,94.0,508.0,820.0,94.0,522.0444444444445,924.6666666666666,65.5111111111111,79.0,1022.0,506.0,572.0,1022.0,94.0
0,466.0,778.0,0.0,545.0,520.0,520.0,520.0,520.0,493.0,493.0,493.0,493.0,572.0,572.0,572.0,572.0,572.0,508.0,508.0,508.0,508.0,466.0,466.0,1021.0,1022.0,1022.0,1022.0,1022.0,1021.0,1021.0,1021.0,1021.0,1020.0,1020.0,1020.0,1020.0,1020.0,820.0,820.0,820.0,820.0,778.0,778.0,1.0,0.0,0.0,0.0,0.0,1.0,1.0,1.0,1.0,1.0,1.0,1.0,1.0,1.0,94.0,94.0,94.0,94.0,1022.0,1022.0,466.0,778.0,1022.0,519.7111111111111,979.5555555555555,72.33333333333333,106.0,296.0,1022.0,572.0,1022.0,1022.0
0,466.0,778.0,0.0,520.0,520.0,493.0,493.0,493.0,493.0,572.0,572.0,572.0,572.0,572.0,508.0,508.0,508.0,508.0,466.0,466.0,466.0,512.0,512.0,1022.0,1022.0,1021.0,1021.0,1021.0,1021.0,1020.0,1020.0,1020.0,1020.0,1020.0,820.0,820.0,820.0,820.0,778.0,778.0,778.0,1021.0,1021.0,0.0,0.0,1.0,1.0,1.0,1.0,1.0,1.0,1.0,1.0,1.0,94.0,94.0,94.0,94.0,1022.0,1022.0,1022.0,120.0,120.0,512.0,1021.0,120.0,519.4,987.2444444444444,82.26666666666667,106.0,244.0,1022.0,572.0,1022.0,1022.0
0,463.0,778.0,1.0,493.0,493.0,572.0,572.0,572.0,572.0,572.0,508.0,508.0,508.0,508.0,466.0,466.0,466.0,512.0,512.0,512.0,512.0,463.0,463.0,1021.0,1021.0,1020.0,1020.0,1020.0,1020.0,1020.0,820.0,820.0,820.0,820.0,778.0,778.0,778.0,1021.0,1021.0,1021.0,1021.0,930.0,930.0,1.0,1.0,1.0,1.0,1.0,1.0,1.0,94.0,94.0,94.0,94.0,1022.0,1022.0,1022.0,120.0,120.0,120.0,120.0,581.0,581.0,463.0,930.0,581.0,518.2888888888889,983.1111111111111,113.33333333333333,109.0,244.0,1022.0,572.0,1021.0,1022.0
0,463.0,690.0,1.0,572.0,572.0,572.0,508.0,508.0,508.0,508.0,466.0,466.0,466.0,512.0,512.0,512.0,512.0,463.0,463.0,463.0,463.0,506.0,506.0,1020.0,1020.0,1020.0,820.0,820.0,820.0,820.0,778.0,778.0,778.0,1021.0,1021.0,1021.0,1021.0,930.0,930.0,930.0,930.0,690.0,690.0,1.0,1.0,1.0,94.0,94.0,94.0,94.0,1022.0,1022.0,1022.0,120.0,120.0,120.0,120.0,581.0,581.0,581.0,581.0,704.0,704.0,506.0,690.0,704.0,514.8666666666667,964.2666666666667,170.44444444444446,109.0,332.0,1022.0,572.0,1021.0,1022.0
0,463.0,510.0,94.0,508.0,508.0,508.0,466.0,466.0,466.0,512.0,512.0,512.0,512.0,463.0,463.0,463.0,463.0,506.0,506.0,506.0,506.0,497.0,497.0,820.0,820.0,820.0,778.0,778.0,778.0,1021.0,1021.0,1021.0,1021.0,930.0,930.0,930.0,930.0,690.0,690.0,690.0,690.0,510.0,510.0,94.0,94.0,94.0,1022.0,1022.0,1022.0,120.0,120.0,120.0,120.0,581.0,581.0,581.0,581.0,704.0,704.0,704.0,704.0,1021.0,1021.0,497.0,510.0,1021.0,514.5555555555555,926.7555555555556,247.11111111111111,109.0,512.0,1022.0,512.0,1021.0,1022.0
0,463.0,510.0,120.0,466.0,466.0,466.0,512.0,512.0,512.0,512.0,463.0,463.0,463.0,463.0,506.0,506.0,506.0,506.0,497.0,497.0,497.0,504.0,504.0,778.0,778.0,778.0,1021.0,1021.0,1021.0,1021.0,930.0,930.0,930.0,930.0,690.0,690.0,690.0,690.0,510.0,510.0,510.0,546.0,546.0,1022.0,1022.0,1022.0,120.0,120.0,120.0,120.0,581.0,581.0,581.0,581.0,704.0,704.0,704.0,704.0,1021.0,1021.0,1021.0,1021.0,1021.0,504.0,546.0,1021.0,511.53333333333336,894.2888888888889,315.1777777777778,109.0,512.0,1022.0,512.0,1021.0,1022.0
0,463.0,510.0,120.0,512.0,512.0,512.0,463.0,463.0,463.0,463.0,506.0,506.0,506.0,506.0,497.0,497.0,497.0,504.0,504.0,504.0,504.0,494.0,494.0,1021.0,1021.0,1021.0,930.0,930.0,930.0,930.0,690.0,690.0,690.0,690.0,510.0,510.0,510.0,546.0,546.0,546.0,546.0,601.0,601.0,120.0,120.0,120.0,581.0,581.0,581.0,581.0,704.0,704.0,704.0,704.0,1021.0,1021.0,1021.0,1021.0,1021.0,1021.0,1021.0,1021.0,1021.0,494.0,601.0,1021.0,509.8,854.4444444444445,405.8666666666667,109.0,512.0,1022.0,512.0,1021.0,1021.0
0,463.0,510.0,581.0,463.0,463.0,506.0,506.0,506.0,506.0,497.0,497.0,497.0,504.0,504.0,504.0,504.0,494.0,494.0,494.0,494.0,494.0,466.0,466.0,930.0,930.0,690.0,690.0,690.0,690.0,510.0,510.0,510.0,546.0,546.0,546.0,546.0,601.0,601.0,601.0,601.0,601.0,580.0,580.0,581.0,581.0,704.0,704.0,704.0,704.0,1021.0,1021.0,1021.0,1021.0,1021.0,1021.0,1021.0,1021.0,1021.0,1021.0,1021.0,1021.0,1021.0,1021.0,466.0,580.0,1021.0,503.44444444444446,806.8222222222222,519.2222222222222,109.0,512.0,1022.0,506.0,930.0,1021.0
0,466.0,510.0,704.0,506.0,506.0,497.0,497.0,497.0,504.0,504.0,504.0,504.0,494.0,494.0,494.0,494.0,494.0,466.0,466.0,466.0,466.0,511.0,511.0,690.0,690.0,510.0,510.0,510.0,546.0,546.0,546.0,546.0,601.0,601.0,601.0,601.0,601.0,580.0,580.0,580.0,580.0,545.0,545.0,704.0,704.0,1021.0,1021.0,1021.0,1021.0,1021.0,1021.0,1021.0,1021.0,1021.0,1021.0,1021.0,1021.0,1021.0,1021.0,1021.0,1021.0,1021.0,1021.0,511.0,545.0,1021.0,500.24444444444447,766.7777777777778,609.9555555555555,109.0,511.0,1021.0,511.0,690.0,1021.0
0,466.0,510.0,1021.0,497.0,504.0,504.0,504.0,504.0,494.0,494.0,494.0,494.0,494.0,466.0,466.0,466.0,466.0,466.0,511.0,511.0,511.0,488.0,488.0,510.0,546.0,546.0,546.0,546.0,601.0,601.0,601.0,601.0,601.0,580.0,580.0,580.0,580.0,580.0,545.0,545.0,545.0,510.0,510.0,1021.0,1021.0,1021.0,1021.0,1021.0,1021.0,1021.0,1021.0,1021.0,1021.0,1021.0,1021.0,1021.0,1021.0,1021.0,1021.0,1021.0,1021.0,1021.0,1021.0,488.0,510.0,1021.0,499.06666666666666,722.9333333333333,700.6222222222223,109.0,511.0,1021.0,511.0,601.0,1021.0
0,466.0,500.0,1021.0,504.0,494.0,494.0,494.0,494.0,494.0,466.0,466.0,466.0,466.0,466.0,511.0,511.0,511.0,488.0,488.0,488.0,488.0,518.0,518.0,546.0,601.0,601.0,601.0,601.0,601.0,580.0,580.0,580.0,580.0,580.0,545.0,545.0,545.0,510.0,510.0,510.0,510.0,500.0,500.0,1021.0,1021.0,1021.0,1021.0,1021.0,1021.0,1021.0,1021.0,1021.0,1021.0,1021.0,1021.0,1021.0,1021.0,1021.0,1021.0,1021.0,1021.0,1022.0,1022.0,518.0,500.0,1022.0,492.93333333333334,677.1555555555556,791.3333333333334,55.0,521.0,928.0,518.0,601.0,1022.0
0,466.0,491.0,924.0,494.0,494.0,466.0,466.0,466.0,466.0,466.0,511.0,511.0,511.0,488.0,488.0,488.0,488.0,518.0,518.0,518.0,518.0,528.0,528.0,601.0,601.0,580.0,580.0,580.0,580.0,580.0,545.0,545.0,545.0,510.0,510.0,510.0,510.0,500.0,500.0,500.0,500.0,491.0,491.0,1021.0,1021.0,1021.0,1021.0,1021.0,1021.0,1021.0,1021.0,1021.0,1021.0,1021.0,1021.0,1021.0,1021.0,1022.0,1022.0,1022.0,1022.0,924.0,924.0,528.0,491.0,924.0,494.26666666666665,648.3111111111111,869.4666666666667,65.0,530.0,902.0,528.0,601.0,1022.0
0,466.0,475.0,924.0,466.0,466.0,466.0,511.0,511.0,511.0,488.0,488.0,488.0,488.0,518.0,518.0,518.0,518.0,528.0,528.0,528.0,528.0,541.0,541.0,580.0,580.0,580.0,545.0,545.0,545.0,510.0,510.0,510.0,510.0,500.0,500.0,500.0,500.0,491.0,491.0,491.0,491.0,475.0,475.0,1021.0,1021.0,1021.0,1021.0,1021.0,1021.0,1021.0,1021.0,1021.0,1021.0,1022.0,1022.0,1022.0,1022.0,924.0,924.0,924.0,924.0,962.0,962.0,541.0,475.0,962.0,499.3333333333333,616.6888888888889,882.4888888888889,78.0,546.0,902.0,541.0,580.0,1022.0
0,488.0,461.0,924.0,511.0,511.0,511.0,488.0,488.0,488.0,488.0,518.0,518.0,518.0,518.0,528.0,528.0,528.0,528.0,541.0,541.0,541.0,541.0,526.0,545.0,545.0,545.0,510.0,510.0,510.0,510.0,500.0,500.0,500.0,500.0,491.0,491.0,491.0,491.0,475.0,475.0,475.0,475.0,461.0,1021.0,1021.0,1021.0,1021.0,1021.0,1021.0,1021.0,1022.0,1022.0,1022.0,1022.0,924.0,924.0,924.0,924.0,962.0,962.0,962.0,962.0,1021.0,526.0,461.0,1021.0,500.93333333333334,579.9777777777778,939.9333333333333,78.0,469.0,441.0,541.0,545.0,1022.0
0,488.0,461.0,924.0,488.0,488.0,518.0,518.0,518.0,518.0,528.0,528.0,528.0,528.0,541.0,541.0,541.0,541.0,526.0,526.0,526.0,526.0,502.0,502.0,510.0,510.0,500.0,500.0,500.0,500.0,491.0,491.0,491.0,491.0,475.0,475.0,475.0,475.0,461.0,461.0,461.0,461.0,479.0,479.0,1021.0,1021.0,1022.0,1022.0,1022.0,1022.0,924.0,924.0,924.0,924.0,962.0,962.0,962.0,962.0,1021.0,1021.0,1021.0,1021.0,1021.0,1021.0,502.0,479.0,1021.0,505.9111111111111,534.0,986.0888888888888,75.0,229.0,318.0,541.0,510.0,1022.0
0,502.0,461.0,924.0,518.0,518.0,528.0,528.0,528.0,528.0,541.0,541.0,541.0,541.0,526.0,526.0,526.0,526.0,502.0,502.0,502.0,502.0,502.0,503.0,500.0,500.0,491.0,491.0,491.0,491.0,475.0,475.0,475.0,475.0,461.0,461.0,461.0,461.0,479.0,479.0,479.0,479.0,479.0,485.0,1022.0,1022.0,924.0,924.0,924.0,924.0,962.0,962.0,962.0,962.0,1021.0,1021.0,1021.0,1021.0,1021.0,1021.0,1021.0,1021.0,1021.0,1013.0,503.0,485.0,1013.0,505.77777777777777,519.3777777777777,1007.0444444444445,75.0,140.0,98.0,541.0,500.0,1022.0
0,502.0,461.0,924.0,528.0,541.0,541.0,541.0,541.0,526.0,526.0,526.0,526.0,502.0,502.0,502.0,502.0,502.0,503.0,503.0,503.0,503.0,522.0,522.0,491.0,475.0,475.0,475.0,475.0,461.0,461.0,461.0,461.0,479.0,479.0,479.0,479.0,479.0,485.0,485.0,485.0,485.0,496.0,496.0,924.0,962.0,962.0,962.0,962.0,1021.0,1021.0,1021.0,1021.0,1021.0,1021.0,1021.0,1021.0,1021.0,1013.0,1013.0,1013.0,1013.0,1014.0,1014.0,522.0,496.0,1014.0,506.8222222222222,514.6888888888889,1006.2,75.0,140.0,98.0,541.0,496.0,1021.0
0,502.0,461.0,898.0,541.0,526.0,526.0,526.0,526.0,502.0,502.0,502.0,502.0,502.0,503.0,503.0,503.0,503.0,522.0,522.0,522.0,522.0,543.0,543.0,475.0,461.0,461.0,461.0,461.0,479.0,479.0,479.0,479.0,479.0,485.0,485.0,485.0,485.0,496.0,496.0,496.0,496.0,534.0,534.0,962.0,1021.0,1021.0,1021.0,1021.0,1021.0,1021.0,1021.0,1021.0,1021.0,1013.0,1013.0,1013.0,1013.0,1014.0,1014.0,1014.0,1014.0,898.0,898.0,543.0,534.0,898.0,510.02222222222224,508.26666666666665,1000.4222222222222,77.0,140.0,124.0,543.0,534.0,1021.0
0,502.0,461.0,729.0,526.0,526.0,502.0,502.0,502.0,502.0,502.0,503.0,503.0,503.0,503.0,522.0,522.0,522.0,522.0,543.0,543.0,543.0,510.0,510.0,461.0,461.0,479.0,479.0,479.0,479.0,479.0,485.0,485.0,485.0,485.0,496.0,496.0,496.0,496.0,534.0,534.0,534.0,543.0,543.0,1021.0,1021.0,1021.0,1021.0,1021.0,1021.0,1021.0,1013.0,1013.0,1013.0,1013.0,1014.0,1014.0,1014.0,1014.0,898.0,898.0,898.0,729.0,729.0,510.0,543.0,729.0,512.4444444444445,504.6666666666667,984.7111111111111,77.0,119.0,293.0,543.0,543.0,1021.0
0,502.0,479.0,484.0,502.0,502.0,502.0,502.0,503.0,503.0,503.0,503.0,522.0,522.0,522.0,522.0,543.0,543.0,543.0,510.0,510.0,510.0,529.0,529.0,479.0,479.0,479.0,479.0,485.0,485.0,485.0,485.0,496.0,496.0,496.0,496.0,534.0,534.0,534.0,543.0,543.0,543.0,537.0,537.0,1021.0,1021.0,1021.0,1021.0,1013.0,1013.0,1013.0,1013.0,1014.0,1014.0,1014.0,1014.0,898.0,898.0,898.0,729.0,729.0,729.0,484.0,484.0,529.0,537.0,484.0,516.2222222222222,501.93333333333334,954.3555555555556,77.0,119.0,538.0,543.0,543.0,1021.0
0,496.0,485.0,484.0,503.0,503.0,503.0,522.0,522.0,522.0,522.0,543.0,543.0,543.0,510.0,510.0,510.0,529.0,529.0,529.0,529.0,496.0,496.0,496.0,485.0,485.0,485.0,496.0,496.0,496.0,496.0,534.0,534.0,534.0,543.0,543.0,543.0,537.0,537.0,537.0,537.0,585.0,585.0,585.0,1013.0,1013.0,1013.0,1014.0,1014.0,1014.0,1014.0,898.0,898.0,898.0,729.0,729.0,729.0,484.0,484.0,484.0,484.0,580.0,580.0,580.0,496.0,585.0,580.0,517.5333333333333,504.24444444444447,901.0888888888888,55.0,124.0,538.0,543.0,585.0,1014.0
0,496.0,496.0,484.0,522.0,522.0,522.0,543.0,543.0,543.0,510.0,510.0,510.0,529.0,529.0,529.0,529.0,496.0,496.0,496.0,496.0,496.0,497.0,497.0,496.0,496.0,496.0,534.0,534.0,534.0,543.0,543.0,543.0,537.0,537.0,537.0,537.0,585.0,585.0,585.0,585.0,585.0,540.0,540.0,1014.0,1014.0,1014.0,898.0,898.0,898.0,729.0,729.0,729.0,484.0,484.0,484.0,484.0,580.0,580.0,580.0,580.0,580.0,817.0,817.0,497.0,540.0,817.0,517.6222222222223,509.1333333333333,872.4,47.0,124.0,538.0,543.0,585.0,1014.0
0,496.0,443.0,484.0,543.0,543.0,510.0,510.0,510.0,529.0,529.0,529.0,529.0,496.0,496.0,496.0,496.0,496.0,497.0,497.0,497.0,497.0,522.0,522.0,534.0,534.0,543.0,543.0,543.0,537.0,537.0,537.0,537.0,585.0,585.0,585.0,585.0,585.0,540.0,540.0,540.0,540.0,443.0,443.0,898.0,898.0,729.0,729.0,729.0,484.0,484.0,484.0,484.0,580.0,580.0,580.0,580.0,580.0,817.0,817.0,817.0,817.0,865.0,865.0,522.0,443.0,865.0,516.6444444444444,508.5777777777778,858.4888888888889,47.0,142.0,537.0,543.0,585.0,898.0
0,496.0,443.0,484.0,510.0,529.0,529.0,529.0,529.0,496.0,496.0,496.0,496.0,496.0,497.0,497.0,497.0,497.0,522.0,522.0,522.0,522.0,537.0,537.0,543.0,537.0,537.0,537.0,537.0,585.0,585.0,585.0,585.0,585.0,540.0,540.0,540.0,540.0,443.0,443.0,443.0,443.0,534.0,534.0,729.0,484.0,484.0,484.0,484.0,580.0,580.0,580.0,580.0,580.0,817.0,817.0,817.0,817.0,865.0,865.0,865.0,865.0,1016.0,1016.0,537.0,534.0,1016.0,516.4888888888889,508.7111111111111,859.1111111111111,47.0,142.0,537.0,537.0,585.0,1016.0
0,496.0,443.0,484.0,529.0,496.0,496.0,496.0,496.0,496.0,497.0,497.0,497.0,497.0,522.0,522.0,522.0,522.0,537.0,537.0,537.0,537.0,506.0,506.0,537.0,585.0,585.0,585.0,585.0,585.0,540.0,540.0,540.0,540.0,443.0,443.0,443.0,443.0,534.0,534.0,534.0,534.0,638.0,638.0,484.0,580.0,580.0,580.0,580.0,580.0,817.0,817.0,817.0,817.0,865.0,865.0,865.0,865.0,1016.0,1016.0,1016.0,1016.0,1021.0,1021.0,506.0,638.0,1021.0,515.0888888888888,518.8888888888889,862.8222222222222,47.0,195.0,537.0,537.0,638.0,1021.0
0,496.0,443.0,580.0,496.0,496.0,497.0,497.0,497.0,497.0,522.0,522.0,522.0,522.0,537.0,537.0,537.0,537.0,506.0,506.0,506.0,506.0,512.0,512.0,585.0,585.0,540.0,540.0,540.0,540.0,443.0,443.0,443.0,443.0,534.0,534.0,534.0,534.0,638.0,638.0,638.0,638.0,575.0,575.0,580.0,580.0,817.0,817.0,817.0,817.0,865.0,865.0,865.0,865.0,1016.0,1016.0,1016.0,1016.0,1021.0,1021.0,1021.0,1021.0,1022.0,1022.0,512.0,575.0,1022.0,514.1111111111111,531.4222222222222,862.8666666666667,47.0,195.0,538.0,537.0,638.0,1022.0
0,497.0,443.0,817.0,497.0,497.0,522.0,522.0,522.0,522.0,537.0,537.0,537.0,537.0,506.0,506.0,506.0,506.0,512.0,512.0,512.0,512.0,501.0,501.0,540.0,540.0,443.0,443.0,443.0,443.0,534.0,534.0,534.0,534.0,638.0,638.0,638.0,638.0,575.0,575.0,575.0,575.0,570.0,570.0,817.0,817.0,865.0,865.0,865.0,865.0,1016.0,1016.0,1016.0,1016.0,1021.0,1021.0,1021.0,1021.0,1022.0,1022.0,1022.0,1022.0,1022.0,1022.0,501.0,570.0,1022.0,514.5111111111111,539.7333333333333,862.9555555555555,47.0,195.0,538.0,537.0,638.0,1022.0
0,501.0,443.0,865.0,522.0,522.0,537.0,537.0,537.0,537.0,506.0,506.0,506.0,506.0,512.0,512.0,512.0,512.0,501.0,501.0,501.0,501.0,510.0,510.0,443.0,443.0,534.0,534.0,534.0,534.0,638.0,638.0,638.0,638.0,575.0,575.0,575.0,575.0,570.0,570.0,570.0,570.0,484.0,484.0,865.0,865.0,1016.0,1016.0,1016.0,1016.0,1021.0,1021.0,1021.0,1021.0,1022.0,1022.0,1022.0,1022.0,1022.0,1022.0,1022.0,1022.0,1022.0,1022.0,510.0,484.0,1022.0,514.7333333333333,543.4666666666667,863.7555555555556,47.0,195.0,538.0,537.0,638.0,1022.0
0,501.0,468.0,1016.0,537.0,506.0,506.0,506.0,506.0,512.0,512.0,512.0,512.0,501.0,501.0,501.0,501.0,510.0,510.0,510.0,510.0,510.0,501.0,501.0,534.0,638.0,638.0,638.0,638.0,575.0,575.0,575.0,575.0,570.0,570.0,570.0,570.0,484.0,484.0,484.0,484.0,484.0,468.0,468.0,1016.0,1021.0,1021.0,1021.0,1021.0,1022.0,1022.0,1022.0,1022.0,1022.0,1022.0,1022.0,1022.0,1022.0,1022.0,1022.0,1022.0,1022.0,1021.0,1021.0,501.0,468.0,1021.0,512.5333333333333,540.5777777777778,867.1777777777778,47.0,195.0,538.0,537.0,638.0,1022.0
0,484.0,468.0,979.0,506.0,512.0,512.0,512.0,512.0,501.0,501.0,501.0,501.0,510.0,510.0,510.0,510.0,510.0,501.0,501.0,501.0,501.0,484.0,484.0,638.0,575.0,575.0,575.0,575.0,570.0,570.0,570.0,570.0,484.0,484.0,484.0,484.0,484.0,468.0,468.0,468.0,468.0,475.0,475.0,1021.0,1022.0,1022.0,1022.0,1022.0,1022.0,1022.0,1022.0,1022.0,1022.0,1022.0,1022.0,1022.0,1022.0,1021.0,1021.0,1021.0,1021.0,979.0,979.0,484.0,475.0,979.0,509.5111111111111,534.6222222222223,883.7555555555556,53.0,195.0,538.0,512.0,638.0,1022.0
0,474.0,468.0,697.0,512.0,512.0,512.0,501.0,501.0,501.0,501.0,510.0,510.0,510.0,510.0,510.0,501.0,501.0,501.0,501.0,484.0,484.0,484.0,474.0,575.0,575.0,575.0,570.0,570.0,570.0,570.0,484.0,484.0,484.0,484.0,484.0,468.0,468.0,468.0,468.0,475.0,475.0,475.0,531.0,1022.0,1022.0,1022.0,1022.0,1022.0,1022.0,1022.0,1022.0,1022.0,1022.0,1022.0,1022.0,1021.0,1021.0,1021.0,1021.0,979.0,979.0,979.0,697.0,474.0,531.0,697.0,507.7111111111111,532.9777777777778,894.0444444444445,63.0,195.0,538.0,512.0,575.0,1022.0
0,474.0,468.0,697.0,501.0,501.0,510.0,510.0,510.0,510.0,510.0,501.0,501.0,501.0,501.0,484.0,484.0,484.0,474.0,474.0,474.0,474.0,487.0,487.0,570.0,570.0,484.0,484.0,484.0,484.0,484.0,468.0,468.0,468.0,468.0,475.0,475.0,475.0,531.0,531.0,531.0,531.0,490.0,490.0,1022.0,1022.0,1022.0,1022.0,1022.0,1022.0,1022.0,1021.0,1021.0,1021.0,1021.0,979.0,979.0,979.0,697.0,697.0,697.0,697.0,766.0,766.0,487.0,490.0,766.0,503.64444444444445,528.3555555555556,916.5111111111111,63.0,195.0,442.0,510.0,570.0,1022.0
0,474.0,468.0,697.0,510.0,510.0,510.0,501.0,501.0,501.0,501.0,484.0,484.0,484.0,474.0,474.0,474.0,474.0,487.0,487.0,487.0,487.0,480.0,480.0,484.0,484.0,484.0,468.0,468.0,468.0,468.0,475.0,475.0,475.0,531.0,531.0,531.0,531.0,490.0,490.0,490.0,490.0,494.0,494.0,1022.0,1022.0,1022.0,1021.0,1021.0,1021.0,1021.0,979.0,979.0,979.0,697.0,697.0,697.0,697.0,766.0,766.0,766.0,766.0,793.0,793.0,480.0,494.0,793.0,502.5111111111111,521.0888888888888,928.9777777777778,63.0,195.0,325.0,510.0,531.0,1022.0
0,474.0,455.0,697.0,501.0,501.0,484.0,484.0,484.0,474.0,474.0,474.0,474.0,487.0,487.0,487.0,487.0,480.0,480.0,480.0,480.0,480.0,492.0,492.0,468.0,468.0,475.0,475.0,475.0,531.0,531.0,531.0,531.0,490.0,490.0,490.0,490.0,494.0,494.0,494.0,494.0,494.0,455.0,455.0,1021.0,1021.0,979.0,979.0,979.0,697.0,697.0,697.0,697.0,766.0,766.0,766.0,766.0,793.0,793.0,793.0,793.0,793.0,890.0,890.0,492.0,455.0,890.0,500.0444444444444,518.5555555555555,928.4888888888889,63.0,195.0,325.0,501.0,531.0,1021.0
0,474.0,364.0,667.0,484.0,474.0,474.0,474.0,474.0,487.0,487.0,487.0,487.0,480.0,480.0,480.0,480.0,480.0,492.0,492.0,492.0,492.0,500.0,500.0,475.0,531.0,531.0,531.0,531.0,490.0,490.0,490.0,490.0,494.0,494.0,494.0,494.0,494.0,455.0,455.0,455.0,455.0,364.0,364.0,979.0,697.0,697.0,697.0,697.0,766.0,766.0,766.0,766.0,793.0,793.0,793.0,793.0,793.0,890.0,890.0,890.0,890.0,667.0,667.0,500.0,364.0,667.0,497.06666666666666,511.53333333333336,914.0888888888888,63.0,274.0,355.0,500.0,531.0,979.0
0,474.0,348.0,667.0,474.0,487.0,487.0,487.0,487.0,480.0,480.0,480.0,480.0,480.0,492.0,492.0,492.0,492.0,500.0,500.0,500.0,500.0,495.0,495.0,531.0,490.0,490.0,490.0,490.0,494.0,494.0,494.0,494.0,494.0,455.0,455.0,455.0,455.0,364.0,364.0,364.0,364.0,348.0,348.0,697.0,766.0,766.0,766.0,766.0,793.0,793.0,793.0,793.0,793.0,890.0,890.0,890.0,890.0,667.0,667.0,667.0,667.0,723.0,723.0,495.0,348.0,723.0,494.93333333333334,491.0888888888889,885.3333333333334,38.0,290.0,355.0,500.0,531.0,890.0
0,480.0,348.0,667.0,487.0,480.0,480.0,480.0,480.0,480.0,492.0,492.0,492.0,492.0,500.0,500.0,500.0,500.0,495.0,495.0,495.0,495.0,506.0,506.0,490.0,494.0,494.0,494.0,494.0,494.0,455.0,455.0,455.0,455.0,364.0,364.0,364.0,364.0,348.0,348.0,348.0,348.0,402.0,402.0,766.0,793.0,793.0,793.0,793.0,793.0,890.0,890.0,890.0,890.0,667.0,667.0,667.0,667.0,723.0,723.0,723.0,723.0,792.0,792.0,506.0,402.0,792.0,494.1777777777778,470.5111111111111,861.8666666666667,38.0,227.0,355.0,506.0,494.0,890.0
0,480.0,348.0,432.0,480.0,480.0,492.0,492.0,492.0,492.0,500.0,500.0,500.0,500.0,495.0,495.0,495.0,495.0,506.0,506.0,506.0,506.0,515.0,515.0,494.0,494.0,455.0,455.0,455.0,455.0,364.0,364.0,364.0,364.0,348.0,348.0,348.0,348.0,402.0,402.0,402.0,402.0,404.0,404.0,793.0,793.0,890.0,890.0,890.0,890.0,667.0,667.0,667.0,667.0,723.0,723.0,723.0,723.0,792.0,792.0,792.0,792.0,432.0,432.0,515.0,404.0,432.0,494.53333333333336,455.44444444444446,825.4222222222222,41.0,222.0,590.0,515.0,494.0,890.0
0,492.0,348.0,176.0,492.0,492.0,500.0,500.0,500.0,500.0,495.0,495.0,495.0,495.0,506.0,506.0,506.0,506.0,515.0,515.0,515.0,515.0,514.0,514.0,455.0,455.0,364.0,364.0,364.0,364.0,348.0,348.0,348.0,348.0,402.0,402.0,402.0,402.0,404.0,404.0,404.0,404.0,433.0,433.0,890.0,890.0,667.0,667.0,667.0,667.0,723.0,723.0,723.0,723.0,792.0,792.0,792.0,792.0,432.0,432.0,432.0,432.0,176.0,176.0,514.0,433.0,176.0,495.3333333333333,445.8,761.6,41.0,183.0,846.0,515.0,455.0,890.0
0,495.0,348.0,1.0,500.0,500.0,495.0,495.0,495.0,495.0,506.0,506.0,506.0,506.0,515.0,515.0,515.0,515.0,514.0,514.0,514.0,514.0,528.0,528.0,364.0,364.0,348.0,348.0,348.0,348.0,402.0,402.0,402.0,402.0,404.0,404.0,404.0,404.0,433.0,433.0,433.0,433.0,452.0,452.0,667.0,667.0,723.0,723.0,723.0,723.0,792.0,792.0,792.0,792.0,432.0,432.0,432.0,432.0,176.0,176.0,176.0,176.0,1.0,1.0,528.0,452.0,1.0,496.5111111111111,442.46666666666664,678.6444444444444,54.0,183.0,1020.0,528.0,452.0,792.0
0,495.0,348.0,1.0,495.0,495.0,506.0,506.0,506.0,506.0,515.0,515.0,515.0,515.0,514.0,514.0,514.0,514.0,528.0,528.0,528.0,528.0,517.0,517.0,348.0,348.0,402.0,402.0,402.0,402.0,404.0,404.0,404.0,404.0,433.0,433.0,433.0,433.0,452.0,452.0,452.0,452.0,433.0,433.0,723.0,723.0,792.0,792.0,792.0,792.0,432.0,432.0,432.0,432.0,176.0,176.0,176.0,176.0,1.0,1.0,1.0,1.0,1.0,1.0,517.0,433.0,1.0,498.8,440.0444444444444,588.9111111111112,54.0,183.0,978.0,528.0,452.0,792.0
0,506.0,402.0,1.0,506.0,506.0,515.0,515.0,515.0,515.0,514.0,514.0,514.0,514.0,528.0,528.0,528.0,528.0,517.0,517.0,517.0,517.0,512.0,512.0,402.0,402.0,404.0,404.0,404.0,404.0,433.0,433.0,433.0,433.0,452.0,452.0,452.0,452.0,433.0,433.0,433.0,433.0,447.0,447.0,792.0,792.0,432.0,432.0,432.0,432.0,176.0,176.0,176.0,176.0,1.0,1.0,1.0,1.0,1.0,1.0,1.0,1.0,53.0,53.0,512.0,447.0,53.0,501.9555555555556,434.44444444444446,516.8222222222222,54.0,183.0,889.0,528.0,452.0,792.0
0,512.0,404.0,1.0,515.0,515.0,514.0,514.0,514.0,514.0,528.0,528.0,528.0,528.0,517.0,517.0,517.0,517.0,512.0,512.0,512.0,512.0,525.0,525.0,404.0,404.0,433.0,433.0,433.0,433.0,452.0,452.0,452.0,452.0,433.0,433.0,433.0,433.0,447.0,447.0,447.0,447.0,467.0,467.0,432.0,432.0,176.0,176.0,176.0,176.0,1.0,1.0,1.0,1.0,1.0,1.0,1.0,1.0,53.0,53.0,53.0,53.0,1.0,1.0,525.0,467.0,1.0,505.3333333333333,429.68888888888887,454.2,48.0,146.0,889.0,528.0,467.0,432.0
0,512.0,433.0,1.0,514.0,514.0,514.0,528.0,528.0,528.0,528.0,517.0,517.0,517.0,517.0,512.0,512.0,512.0,512.0,525.0,525.0,525.0,525.0,512.0,433.0,433.0,433.0,452.0,452.0,452.0,452.0,433.0,433.0,433.0,433.0,447.0,447.0,447.0,447.0,467.0,467.0,467.0,467.0,529.0,176.0,176.0,176.0,1.0,1.0,1.0,1.0,1.0,1.0,1.0,1.0,53.0,53.0,53.0,53.0,1.0,1.0,1.0,1.0,1.0,512.0,529.0,1.0,507.73333333333335,429.44444444444446,402.6,48.0,181.0,889.0,528.0,529.0,176.0
0,501.0,433.0,0.0,528.0,517.0,517.0,517.0,517.0,512.0,512.0,512.0,512.0,525.0,525.0,525.0,525.0,512.0,512.0,512.0,501.0,501.0,501.0,501.0,452.0,433.0,433.0,433.0,433.0,447.0,447.0,447.0,447.0,467.0,467.0,467.0,467.0,529.0,529.0,529.0,608.0,608.0,608.0,608.0,1.0,1.0,1.0,1.0,1.0,53.0,53.0,53.0,53.0,1.0,1.0,1.0,1.0,1.0,1.0,1.0,0.0,0.0,0.0,0.0,501.0,608.0,0.0,510.4888888888889,442.8666666666667,292.6,36.0,260.0,890.0,528.0,608.0,53.0
0,501.0,447.0,0.0,512.0,512.0,512.0,512.0,525.0,525.0,525.0,525.0,512.0,512.0,512.0,501.0,501.0,501.0,501.0,501.0,501.0,501.0,507.0,507.0,447.0,447.0,447.0,447.0,467.0,467.0,467.0,467.0,529.0,529.0,529.0,608.0,608.0,608.0,608.0,608.0,608.0,608.0,654.0,654.0,53.0,53.0,53.0,53.0,1.0,1.0,1.0,1.0,1.0,1.0,1.0,0.0,0.0,0.0,0.0,0.0,0.0,0.0,1.0,1.0,507.0,654.0,1.0,511.06666666666666,461.53333333333336,208.62222222222223,33.0,306.0,792.0,525.0,654.0,53.0
0,501.0,447.0,0.0,512.0,525.0,525.0,525.0,525.0,512.0,512.0,512.0,501.0,501.0,501.0,501.0,501.0,501.0,501.0,507.0,507.0,507.0,507.0,513.0,447.0,467.0,467.0,467.0,467.0,529.0,529.0,529.0,608.0,608.0,608.0,608.0,608.0,608.0,608.0,654.0,654.0,654.0,654.0,646.0,53.0,1.0,1.0,1.0,1.0,1.0,1.0,1.0,0.0,0.0,0.0,0.0,0.0,0.0,0.0,1.0,1.0,1.0,1.0,1.0,513.0,646.0,1.0,512.0444444444445,487.84444444444443,161.73333333333332,33.0,306.0,792.0,525.0,654.0,53.0
0,501.0,467.0,0.0,525.0,512.0,512.0,512.0,501.0,501.0,501.0,501.0,501.0,501.0,501.0,507.0,507.0,507.0,507.0,513.0,513.0,513.0,526.0,526.0,467.0,529.0,529.0,529.0,608.0,608.0,608.0,608.0,608.0,608.0,608.0,654.0,654.0,654.0,654.0,646.0,646.0,646.0,646.0,646.0,1.0,1.0,1.0,1.0,0.0,0.0,0.0,0.0,0.0,0.0,0.0,1.0,1.0,1.0,1.0,1.0,1.0,1.0,1.0,1.0,526.0,646.0,1.0,513.7333333333333,511.93333333333334,94.4888888888889,27.0,252.0,792.0,526.0,654.0,1.0
0,501.0,607.0,0.0,501.0,501.0,501.0,501.0,501.0,501.0,501.0,507.0,507.0,507.0,507.0,513.0,513.0,513.0,526.0,526.0,526.0,526.0,531.0,531.0,608.0,608.0,608.0,608.0,608.0,608.0,608.0,654.0,654.0,654.0,654.0,646.0,646.0,646.0,646.0,646.0,646.0,646.0,607.0,607.0,0.0,0.0,0.0,0.0,0.0,0.0,0.0,1.0,1.0,1.0,1.0,1.0,1.0,1.0,1.0,1.0,1.0,1.0,23.0,23.0,531.0,607.0,23.0,515.3333333333334,531.8,41.15555555555556,30.0,250.0,432.0,531.0,654.0,23.0
0,501.0,607.0,0.0,501.0,501.0,501.0,507.0,507.0,507.0,507.0,513.0,513.0,513.0,526.0,526.0,526.0,526.0,531.0,531.0,531.0,531.0,610.0,610.0,608.0,608.0,608.0,654.0,654.0,654.0,654.0,646.0,646.0,646.0,646.0,646.0,646.0,646.0,607.0,607.0,607.0,607.0,630.0,630.0,0.0,0.0,0.0,1.0,1.0,1.0,1.0,1.0,1.0,1.0,1.0,1.0,1.0,1.0,23.0,23.0,23.0,23.0,436.0,436.0,610.0,630.0,436.0,520.3111111111111,549.5777777777778,34.53333333333333,109.0,221.0,436.0,610.0,654.0,436.0
0,507.0,607.0,1.0,507.0,507.0,507.0,513.0,513.0,513.0,526.0,526.0,526.0,526.0,531.0,531.0,531.0,531.0,610.0,610.0,610.0,610.0,514.0,514.0,654.0,654.0,654.0,646.0,646.0,646.0,646.0,646.0,646.0,646.0,607.0,607.0,607.0,607.0,630.0,630.0,630.0,630.0,623.0,623.0,1.0,1.0,1.0,1.0,1.0,1.0,1.0,1.0,1.0,1.0,23.0,23.0,23.0,23.0,436.0,436.0,436.0,436.0,358.0,358.0,514.0,623.0,358.0,523.9555555555555,565.9333333333333,61.955555555555556,109.0,221.0,436.0,610.0,654.0,436.0
0,448.0,607.0,1.0,513.0,513.0,526.0,526.0,526.0,526.0,531.0,531.0,531.0,531.0,610.0,610.0,610.0,610.0,514.0,514.0,514.0,514.0,448.0,448.0,646.0,646.0,646.0,646.0,646.0,646.0,607.0,607.0,607.0,607.0,630.0,630.0,630.0,630.0,623.0,623.0,623.0,623.0,704.0,704.0,1.0,1.0,1.0,1.0,1.0,1.0,23.0,23.0,23.0,23.0,436.0,436.0,436.0,436.0,358.0,358.0,358.0,358.0,496.0,496.0,448.0,704.0,496.0,520.2666666666667,585.5777777777778,99.82222222222222,162.0,271.0,496.0,610.0,704.0,496.0
0,448.0,607.0,1.0,526.0,526.0,526.0,531.0,531.0,531.0,531.0,610.0,610.0,610.0,610.0,514.0,514.0,514.0,514.0,448.0,448.0,448.0,489.0,489.0,646.0,646.0,646.0,607.0,607.0,607.0,607.0,630.0,630.0,630.0,630.0,623.0,623.0,623.0,623.0,704.0,704.0,704.0,690.0,690.0,1.0,1.0,1.0,23.0,23.0,23.0,23.0,436.0,436.0,436.0,436.0,358.0,358.0,358.0,358.0,496.0,496.0,496.0,693.0,693.0,489.0,690.0,693.0,517.6,602.7111111111111,140.42222222222222,162.0,257.0,693.0,610.0,704.0,693.0
0,448.0,576.0,23.0,531.0,531.0,531.0,610.0,610.0,610.0,610.0,514.0,514.0,514.0,514.0,448.0,448.0,448.0,489.0,489.0,489.0,489.0,483.0,483.0,607.0,607.0,607.0,630.0,630.0,630.0,630.0,623.0,623.0,623.0,623.0,704.0,704.0,704.0,690.0,690.0,690.0,690.0,576.0,576.0,23.0,23.0,23.0,436.0,436.0,436.0,436.0,358.0,358.0,358.0,358.0,496.0,496.0,496.0,693.0,693.0,693.0,693.0,955.0,955.0,483.0,576.0,955.0,515.0,618.8,210.11111111111111,162.0,237.0,955.0,610.0,704.0,955.0
0,448.0,489.0,339.0,610.0,610.0,610.0,514.0,514.0,514.0,514.0,448.0,448.0,448.0,489.0,489.0,489.0,489.0,483.0,483.0,483.0,483.0,505.0,505.0,630.0,630.0,630.0,623.0,623.0,623.0,623.0,704.0,704.0,704.0,690.0,690.0,690.0,690.0,576.0,576.0,576.0,576.0,489.0,489.0,436.0,436.0,436.0,358.0,358.0,358.0,358.0,496.0,496.0,496.0,693.0,693.0,693.0,693.0,955.0,955.0,955.0,955.0,339.0,339.0,505.0,489.0,339.0,512.5333333333333,623.2444444444444,267.53333333333336,162.0,215.0,955.0,610.0,704.0,955.0
0,448.0,433.0,218.0,514.0,514.0,514.0,514.0,448.0,448.0,448.0,489.0,489.0,489.0,489.0,483.0,483.0,483.0,483.0,505.0,505.0,505.0,494.0,494.0,623.0,623.0,623.0,623.0,704.0,704.0,704.0,690.0,690.0,690.0,690.0,576.0,576.0,576.0,576.0,489.0,489.0,489.0,433.0,433.0,358.0,358.0,358.0,358.0,496.0,496.0,496.0,693.0,693.0,693.0,693.0,955.0,955.0,955.0,955.0,339.0,339.0,339.0,218.0,218.0,494.0,433.0,218.0,511.8222222222222,616.3333333333334,284.7111111111111,162.0,271.0,955.0,514.0,704.0,955.0
0,448.0,433.0,69.0,448.0,448.0,448.0,489.0,489.0,489.0,489.0,483.0,483.0,483.0,483.0,505.0,505.0,505.0,494.0,494.0,494.0,494.0,519.0,519.0,704.0,704.0,704.0,690.0,690.0,690.0,690.0,576.0,576.0,576.0,576.0,489.0,489.0,489.0,433.0,433.0,433.0,433.0,442.0,442.0,496.0,496.0,496.0,693.0,693.0,693.0,693.0,955.0,955.0,955.0,955.0,339.0,339.0,339.0,218.0,218.0,218.0,218.0,69.0,69.0,519.0,442.0,69.0,512.3111111111111,601.1777777777778,297.46666666666664,162.0,271.0,955.0,519.0,704.0,955.0
0,483.0,433.0,69.0,489.0,489.0,489.0,483.0,483.0,483.0,483.0,505.0,505.0,505.0,494.0,494.0,494.0,494.0,519.0,519.0,519.0,519.0,510.0,510.0,690.0,690.0,690.0,576.0,576.0,576.0,576.0,489.0,489.0,489.0,433.0,433.0,433.0,433.0,442.0,442.0,442.0,442.0,494.0,494.0,693.0,693.0,693.0,955.0,955.0,955.0,955.0,339.0,339.0,339.0,218.0,218.0,218.0,218.0,69.0,69.0,69.0,69.0,152.0,152.0,510.0,494.0,152.0,513.2444444444444,586.6888888888889,307.24444444444447,162.0,271.0,954.0,519.0,690.0,955.0
0,483.0,433.0,69.0,483.0,483.0,483.0,505.0,505.0,505.0,494.0,494.0,494.0,494.0,519.0,519.0,519.0,519.0,510.0,510.0,510.0,510.0,549.0,549.0,576.0,576.0,576.0,489.0,489.0,489.0,433.0,433.0,433.0,433.0,442.0,442.0,442.0,442.0,494.0,494.0,494.0,494.0,461.0,461.0,955.0,955.0,955.0,339.0,339.0,339.0,218.0,218.0,218.0,218.0,69.0,69.0,69.0,69.0,152.0,152.0,152.0,152.0,196.0,196.0,549.0,461.0,196.0,514.9777777777778,571.3555555555556,322.6222222222222,162.0,271.0,954.0,549.0,576.0,955.0
0,477.0,433.0,69.0,505.0,505.0,494.0,494.0,494.0,494.0,519.0,519.0,519.0,519.0,510.0,510.0,510.0,510.0,549.0,549.0,549.0,549.0,477.0,477.0,489.0,489.0,433.0,433.0,433.0,433.0,442.0,442.0,442.0,442.0,494.0,494.0,494.0,494.0,461.0,461.0,461.0,461.0,462.0,462.0,339.0,339.0,218.0,218.0,218.0,218.0,69.0,69.0,69.0,69.0,152.0,152.0,152.0,152.0,196.0,196.0,196.0,196.0,208.0,208.0,477.0,462.0,208.0,514.1111111111111,554.9555555555555,340.4888888888889,162.0,271.0,954.0,549.0,494.0,339.0
0,477.0,419.0,69.0,494.0,494.0,494.0,519.0,519.0,519.0,519.0,510.0,510.0,510.0,510.0,549.0,549.0,549.0,549.0,477.0,477.0,477.0,488.0,488.0,433.0,433.0,433.0,442.0,442.0,442.0,442.0,494.0,494.0,494.0,494.0,461.0,461.0,461.0,461.0,462.0,462.0,462.0,419.0,419.0,218.0,218.0,218.0,69.0,69.0,69.0,69.0,152.0,152.0,152.0,152.0,196.0,196.0,196.0,196.0,208.0,208.0,208.0,204.0,204.0,488.0,419.0,204.0,511.1111111111111,542.5111111111111,353.1333333333333,162.0,285.0,932.0,549.0,494.0,218.0
0,477.0,362.0,69.0,519.0,519.0,519.0,510.0,510.0,510.0,510.0,549.0,549.0,549.0,549.0,477.0,477.0,477.0,488.0,488.0,488.0,488.0,488.0,516.0,442.0,442.0,442.0,494.0,494.0,494.0,494.0,461.0,461.0,461.0,461.0,462.0,462.0,462.0,419.0,419.0,419.0,419.0,419.0,362.0,69.0,69.0,69.0,152.0,152.0,152.0,152.0,196.0,196.0,196.0,196.0,208.0,208.0,208.0,204.0,204.0,204.0,204.0,204.0,340.0,516.0,362.0,340.0,504.4,523.5111111111111,353.8888888888889,162.0,342.0,886.0,549.0,494.0,340.0
0,477.0,362.0,152.0,510.0,510.0,549.0,549.0,549.0,549.0,477.0,477.0,477.0,488.0,488.0,488.0,488.0,488.0,516.0,516.0,516.0,516.0,496.0,496.0,494.0,494.0,461.0,461.0,461.0,461.0,462.0,462.0,462.0,419.0,419.0,419.0,419.0,419.0,362.0,362.0,362.0,362.0,434.0,434.0,152.0,152.0,196.0,196.0,196.0,196.0,208.0,208.0,208.0,204.0,204.0,204.0,204.0,204.0,340.0,340.0,340.0,340.0,388.0,388.0,496.0,434.0,388.0,499.46666666666664,497.4,350.55555555555554,101.0,342.0,886.0,549.0,494.0,388.0
0,477.0,362.0,196.0,549.0,549.0,477.0,477.0,477.0,488.0,488.0,488.0,488.0,488.0,516.0,516.0,516.0,516.0,496.0,496.0,496.0,496.0,508.0,508.0,461.0,461.0,462.0,462.0,462.0,419.0,419.0,419.0,419.0,419.0,362.0,362.0,362.0,362.0,434.0,434.0,434.0,434.0,427.0,427.0,196.0,196.0,208.0,208.0,208.0,204.0,204.0,204.0,204.0,204.0,340.0,340.0,340.0,340.0,388.0,388.0,388.0,388.0,419.0,419.0,508.0,427.0,419.0,502.8,474.8888888888889,345.4,72.0,328.0,886.0,549.0,462.0,419.0
0,477.0,362.0,204.0,477.0,488.0,488.0,488.0,488.0,488.0,516.0,516.0,516.0,516.0,496.0,496.0,496.0,496.0,508.0,508.0,508.0,508.0,504.0,504.0,462.0,419.0,419.0,419.0,419.0,419.0,362.0,362.0,362.0,362.0,434.0,434.0,434.0,434.0,427.0,427.0,427.0,427.0,456.0,456.0,208.0,204.0,204.0,204.0,204.0,204.0,340.0,340.0,340.0,340.0,388.0,388.0,388.0,388.0,419.0,419.0,419.0,419.0,510.0,510.0,504.0,456.0,510.0,504.31111111111113,452.8,325.0888888888889,72.0,214.0,886.0,516.0,462.0,510.0
0,488.0,362.0,204.0,488.0,488.0,488.0,516.0,516.0,516.0,516.0,496.0,496.0,496.0,496.0,508.0,508.0,508.0,508.0,504.0,504.0,504.0,491.0,491.0,419.0,419.0,419.0,362.0,362.0,362.0,362.0,434.0,434.0,434.0,434.0,427.0,427.0,427.0,427.0,456.0,456.0,456.0,468.0,468.0,204.0,204.0,204.0,340.0,340.0,340.0,340.0,388.0,388.0,388.0,388.0,419.0,419.0,419.0,419.0,510.0,510.0,510.0,438.0,438.0,491.0,468.0,438.0,505.1333333333333,445.3333333333333,292.22222222222223,72.0,214.0,886.0,516.0,468.0,510.0
0,491.0,362.0,340.0,516.0,516.0,516.0,496.0,496.0,496.0,496.0,508.0,508.0,508.0,508.0,504.0,504.0,504.0,491.0,491.0,491.0,491.0,519.0,519.0,362.0,362.0,362.0,434.0,434.0,434.0,434.0,427.0,427.0,427.0,427.0,456.0,456.0,456.0,468.0,468.0,468.0,468.0,454.0,454.0,340.0,340.0,340.0,388.0,388.0,388.0,388.0,419.0,419.0,419.0,419.0,510.0,510.0,510.0,438.0,438.0,438.0,438.0,360.0,360.0,519.0,454.0,360.0,505.6222222222222,440.9111111111111,283.8666666666667,72.0,132.0,441.0,519.0,468.0,510.0
0,491.0,427.0,327.0,496.0,496.0,496.0,508.0,508.0,508.0,508.0,504.0,504.0,504.0,491.0,491.0,491.0,491.0,519.0,519.0,519.0,519.0,519.0,511.0,434.0,434.0,434.0,427.0,427.0,427.0,427.0,456.0,456.0,456.0,468.0,468.0,468.0,468.0,454.0,454.0,454.0,454.0,454.0,492.0,388.0,388.0,388.0,419.0,419.0,419.0,419.0,510.0,510.0,510.0,438.0,438.0,438.0,438.0,360.0,360.0,360.0,360.0,360.0,327.0,511.0,492.0,327.0,507.6666666666667,443.6222222222222,295.75555555555553,72.0,132.0,441.0,519.0,492.0,510.0
0,491.0,427.0,327.0,508.0,508.0,508.0,504.0,504.0,504.0,491.0,491.0,491.0,491.0,519.0,519.0,519.0,519.0,519.0,511.0,511.0,511.0,511.0,543.0,427.0,427.0,427.0,456.0,456.0,456.0,468.0,468.0,468.0,468.0,454.0,454.0,454.0,454.0,454.0,492.0,492.0,492.0,492.0,477.0,419.0,419.0,419.0,510.0,510.0,510.0,438.0,438.0,438.0,438.0,360.0,360.0,360.0,360.0,360.0,327.0,327.0,327.0,327.0,469.0,543.0,477.0,469.0,507.6666666666667,447.73333333333335,321.84444444444443,72.0,132.0,358.0,543.0,492.0,510.0
0,491.0,454.0,327.0,504.0,504.0,491.0,491.0,491.0,491.0,519.0,519.0,519.0,519.0,519.0,511.0,511.0,511.0,511.0,543.0,543.0,543.0,515.0,515.0,456.0,456.0,468.0,468.0,468.0,468.0,454.0,454.0,454.0,454.0,454.0,492.0,492.0,492.0,492.0,477.0,477.0,477.0,499.0,499.0,510.0,510.0,438.0,438.0,438.0,438.0,360.0,360.0,360.0,360.0,360.0,327.0,327.0,327.0,327.0,469.0,469.0,469.0,711.0,711.0,515.0,499.0,711.0,509.35555555555555,447.2,360.77777777777777,72.0,137.0,515.0,543.0,499.0,711.0
0,491.0,454.0,327.0,491.0,491.0,519.0,519.0,519.0,519.0,519.0,511.0,511.0,511.0,511.0,543.0,543.0,543.0,515.0,515.0,515.0,515.0,511.0,511.0,468.0,468.0,454.0,454.0,454.0,454.0,454.0,492.0,492.0,492.0,492.0,477.0,477.0,477.0,499.0,499.0,499.0,499.0,570.0,570.0,438.0,438.0,360.0,360.0,360.0,360.0,360.0,327.0,327.0,327.0,327.0,469.0,469.0,469.0,711.0,711.0,711.0,711.0,976.0,976.0,511.0,570.0,976.0,506.15555555555557,453.73333333333335,418.3333333333333,66.0,208.0,772.0,543.0,570.0,976.0
0,511.0,454.0,327.0,519.0,519.0,519.0,511.0,511.0,511.0,511.0,543.0,543.0,543.0,515.0,515.0,515.0,515.0,511.0,511.0,511.0,511.0,518.0,518.0,454.0,454.0,454.0,492.0,492.0,492.0,492.0,477.0,477.0,477.0,499.0,499.0,499.0,499.0,570.0,570.0,570.0,570.0,557.0,557.0,360.0,360.0,360.0,327.0,327.0,327.0,327.0,469.0,469.0,469.0,711.0,711.0,711.0,711.0,976.0,976.0,976.0,976.0,997.0,997.0,518.0,557.0,997.0,509.24444444444447,463.7111111111111,487.6222222222222,55.0,208.0,793.0,543.0,570.0,997.0
0,509.0,477.0,327.0,511.0,511.0,511.0,543.0,543.0,543.0,515.0,515.0,515.0,515.0,511.0,511.0,511.0,511.0,518.0,518.0,518.0,518.0,509.0,509.0,492.0,492.0,492.0,477.0,477.0,477.0,499.0,499.0,499.0,499.0,570.0,570.0,570.0,570.0,557.0,557.0,557.0,557.0,503.0,503.0,327.0,327.0,327.0,469.0,469.0,469.0,711.0,711.0,711.0,711.0,976.0,976.0,976.0,976.0,997.0,997.0,997.0,997.0,1017.0,1017.0,509.0,503.0,1017.0,511.5111111111111,473.5777777777778,559.0,52.0,208.0,690.0,543.0,570.0,1017.0
0,509.0,451.0,469.0,543.0,543.0,515.0,515.0,515.0,515.0,511.0,511.0,511.0,511.0,518.0,518.0,518.0,518.0,509.0,509.0,509.0,509.0,528.0,528.0,477.0,477.0,499.0,499.0,499.0,499.0,570.0,570.0,570.0,570.0,557.0,557.0,557.0,557.0,503.0,503.0,503.0,503.0,451.0,451.0,469.0,469.0,711.0,711.0,711.0,711.0,976.0,976.0,976.0,976.0,997.0,997.0,997.0,997.0,1017.0,1017.0,1017.0,1017.0,1016.0,1016.0,528.0,451.0,1016.0,511.73333333333335,483.8,619.1333333333333,52.0,143.0,690.0,543.0,570.0,1017.0
0,509.0,449.0,526.0,515.0,515.0,511.0,511.0,511.0,511.0,518.0,518.0,518.0,518.0,509.0,509.0,509.0,509.0,528.0,528.0,528.0,528.0,516.0,516.0,499.0,499.0,570.0,570.0,570.0,570.0,557.0,557.0,557.0,557.0,503.0,503.0,503.0,503.0,451.0,451.0,451.0,451.0,449.0,449.0,711.0,711.0,976.0,976.0,976.0,976.0,997.0,997.0,997.0,997.0,1017.0,1017.0,1017.0,1017.0,1016.0,1016.0,1016.0,1016.0,526.0,526.0,516.0,449.0,526.0,514.0444444444445,485.22222222222223,653.1777777777778,52.0,143.0,690.0,528.0,570.0,1017.0
0,509.0,449.0,391.0,511.0,511.0,518.0,518.0,518.0,518.0,509.0,509.0,509.0,509.0,528.0,528.0,528.0,528.0,516.0,516.0,516.0,516.0,528.0,528.0,570.0,570.0,557.0,557.0,557.0,557.0,503.0,503.0,503.0,503.0,451.0,451.0,451.0,451.0,449.0,449.0,449.0,449.0,479.0,479.0,976.0,976.0,997.0,997.0,997.0,997.0,1017.0,1017.0,1017.0,1017.0,1016.0,1016.0,1016.0,1016.0,526.0,526.0,526.0,526.0,391.0,391.0,528.0,479.0,391.0,515.2888888888889,488.5111111111111,656.6888888888889,52.0,121.0,690.0,528.0,570.0,1017.0
0,509.0,449.0,158.0,518.0,518.0,518.0,509.0,509.0,509.0,509.0,528.0,528.0,528.0,528.0,516.0,516.0,516.0,516.0,528.0,528.0,528.0,528.0,511.0,557.0,557.0,557.0,503.0,503.0,503.0,503.0,451.0,451.0,451.0,451.0,449.0,449.0,449.0,449.0,479.0,479.0,479.0,479.0,498.0,997.0,997.0,997.0,1017.0,1017.0,1017.0,1017.0,1016.0,1016.0,1016.0,1016.0,526.0,526.0,526.0,526.0,391.0,391.0,391.0,391.0,158.0,511.0,498.0,158.0,516.5111111111111,490.46666666666664,643.5777777777778,52.0,121.0,859.0,528.0,557.0,1017.0
0,509.0,449.0,16.0,509.0,509.0,528.0,528.0,528.0,528.0,516.0,516.0,516.0,516.0,528.0,528.0,528.0,528.0,511.0,511.0,511.0,511.0,511.0,511.0,503.0,503.0,451.0,451.0,451.0,451.0,449.0,449.0,449.0,449.0,479.0,479.0,479.0,479.0,498.0,498.0,498.0,498.0,575.0,575.0,1017.0,1017.0,1016.0,1016.0,1016.0,1016.0,526.0,526.0,526.0,526.0,391.0,391.0,391.0,391.0,158.0,158.0,158.0,158.0,16.0,16.0,511.0,575.0,16.0,518.1111111111111,497.53333333333336,607.8888888888889,34.0,126.0,1001.0,528.0,575.0,1017.0
0,511.0,449.0,1.0,528.0,528.0,516.0,516.0,516.0,516.0,528.0,528.0,528.0,528.0,511.0,511.0,511.0,511.0,511.0,511.0,511.0,511.0,515.0,515.0,451.0,451.0,449.0,449.0,449.0,449.0,479.0,479.0,479.0,479.0,498.0,498.0,498.0,498.0,575.0,575.0,575.0,575.0,598.0,598.0,1016.0,1016.0,526.0,526.0,526.0,526.0,391.0,391.0,391.0,391.0,158.0,158.0,158.0,158.0,16.0,16.0,16.0,16.0,1.0,1.0,515.0,598.0,1.0,517.5777777777778,509.31111111111113,576.6444444444444,34.0,149.0,1016.0,528.0,598.0,1016.0
0,480.0,449.0,1.0,516.0,516.0,528.0,528.0,528.0,528.0,511.0,511.0,511.0,511.0,511.0,511.0,511.0,511.0,515.0,515.0,515.0,515.0,480.0,480.0,449.0,449.0,479.0,479.0,479.0,479.0,498.0,498.0,498.0,498.0,575.0,575.0,575.0,575.0,598.0,598.0,598.0,598.0,599.0,599.0,526.0,526.0,391.0,391.0,391.0,391.0,158.0,158.0,158.0,158.0,16.0,16.0,16.0,16.0,1.0,1.0,1.0,1.0,1.0,1.0,480.0,599.0,1.0,516.3777777777777,518.7777777777778,547.6666666666666,63.0,150.0,1016.0,528.0,599.0,526.0
0,480.0,479.0,1.0,528.0,528.0,511.0,511.0,511.0,511.0,511.0,511.0,511.0,511.0,515.0,515.0,515.0,515.0,480.0,480.0,480.0,480.0,540.0,540.0,479.0,479.0,498.0,498.0,498.0,498.0,575.0,575.0,575.0,575.0,598.0,598.0,598.0,598.0,599.0,599.0,599.0,599.0,596.0,596.0,391.0,391.0,158.0,158.0,158.0,158.0,16.0,16.0,16.0,16.0,1.0,1.0,1.0,1.0,1.0,1.0,1.0,1.0,88.0,88.0,540.0,596.0,88.0,514.0666666666667,529.0,504.55555555555554,60.0,150.0,1016.0,540.0,599.0,391.0
0,464.0,498.0,1.0,511.0,511.0,511.0,511.0,511.0,511.0,515.0,515.0,515.0,515.0,480.0,480.0,480.0,480.0,540.0,540.0,540.0,540.0,464.0,464.0,498.0,498.0,575.0,575.0,575.0,575.0,598.0,598.0,598.0,598.0,599.0,599.0,599.0,599.0,596.0,596.0,596.0,596.0,521.0,521.0,158.0,158.0,16.0,16.0,16.0,16.0,1.0,1.0,1.0,1.0,1.0,1.0,1.0,1.0,88.0,88.0,88.0,88.0,417.0,417.0,464.0,521.0,417.0,513.0,532.7111111111111,457.9111111111111,76.0,150.0,1016.0,540.0,599.0,417.0
0,464.0,491.0,1.0,511.0,511.0,515.0,515.0,515.0,515.0,480.0,480.0,480.0,480.0,540.0,540.0,540.0,540.0,464.0,464.0,464.0,464.0,496.0,496.0,575.0,575.0,598.0,598.0,598.0,598.0,599.0,599.0,599.0,599.0,596.0,596.0,596.0,596.0,521.0,521.0,521.0,521.0,491.0,491.0,16.0,16.0,1.0,1.0,1.0,1.0,1.0,1.0,1.0,1.0,88.0,88.0,88.0,88.0,417.0,417.0,417.0,417.0,515.0,515.0,496.0,491.0,515.0,510.0888888888889,527.3111111111111,412.1111111111111,76.0,150.0,1016.0,540.0,599.0,515.0
0,464.0,491.0,1.0,515.0,515.0,515.0,480.0,480.0,480.0,480.0,540.0,540.0,540.0,540.0,464.0,464.0,464.0,464.0,496.0,496.0,496.0,541.0,541.0,598.0,598.0,598.0,599.0,599.0,599.0,599.0,596.0,596.0,596.0,596.0,521.0,521.0,521.0,521.0,491.0,491.0,491.0,527.0,527.0,1.0,1.0,1.0,1.0,1.0,1.0,1.0,88.0,88.0,88.0,88.0,417.0,417.0,417.0,417.0,515.0,515.0,515.0,773.0,773.0,541.0,527.0,773.0,510.6222222222222,524.5111111111111,391.44444444444446,77.0,150.0,1016.0,541.0,599.0,773.0
0,384.0,415.0,1.0,480.0,480.0,540.0,540.0,540.0,540.0,464.0,464.0,464.0,464.0,496.0,496.0,496.0,541.0,541.0,541.0,541.0,541.0,384.0,384.0,599.0,599.0,596.0,596.0,596.0,596.0,521.0,521.0,521.0,521.0,491.0,491.0,491.0,527.0,527.0,527.0,527.0,527.0,415.0,415.0,1.0,1.0,88.0,88.0,88.0,88.0,417.0,417.0,417.0,417.0,515.0,515.0,515.0,773.0,773.0,773.0,773.0,773.0,826.0,826.0,384.0,415.0,826.0,506.77777777777777,523.3555555555556,366.7111111111111,157.0,184.0,1015.0,541.0,599.0,826.0
0,384.0,415.0,88.0,540.0,540.0,464.0,464.0,464.0,464.0,496.0,496.0,496.0,541.0,541.0,541.0,541.0,541.0,384.0,384.0,384.0,384.0,426.0,426.0,596.0,596.0,521.0,521.0,521.0,521.0,491.0,491.0,491.0,527.0,527.0,527.0,527.0,527.0,415.0,415.0,415.0,415.0,493.0,493.0,88.0,88.0,417.0,417.0,417.0,417.0,515.0,515.0,515.0,773.0,773.0,773.0,773.0,773.0,826.0,826.0,826.0,826.0,934.0,934.0,426.0,493.0,934.0,496.1111111111111,523.6666666666666,365.5111111111111,157.0,184.0,933.0,541.0,596.0,934.0
0,384.0,415.0,417.0,464.0,464.0,496.0,496.0,496.0,541.0,541.0,541.0,541.0,541.0,384.0,384.0,384.0,384.0,426.0,426.0,426.0,426.0,499.0,499.0,521.0,521.0,491.0,491.0,491.0,527.0,527.0,527.0,527.0,527.0,415.0,415.0,415.0,415.0,493.0,493.0,493.0,493.0,521.0,521.0,417.0,417.0,515.0,515.0,515.0,773.0,773.0,773.0,773.0,773.0,826.0,826.0,826.0,826.0,934.0,934.0,934.0,934.0,884.0,884.0,499.0,521.0,884.0,491.0888888888889,528.1555555555556,402.55555555555554,157.0,184.0,933.0,541.0,527.0,934.0
0,384.0,415.0,515.0,496.0,496.0,541.0,541.0,541.0,541.0,541.0,384.0,384.0,384.0,384.0,426.0,426.0,426.0,426.0,499.0,499.0,499.0,507.0,507.0,491.0,491.0,527.0,527.0,527.0,527.0,527.0,415.0,415.0,415.0,415.0,493.0,493.0,493.0,493.0,521.0,521.0,521.0,603.0,603.0,515.0,515.0,773.0,773.0,773.0,773.0,773.0,826.0,826.0,826.0,826.0,934.0,934.0,934.0,934.0,884.0,884.0,884.0,1018.0,1018.0,507.0,603.0,1018.0,489.5111111111111,534.6,441.3777777777778,157.0,188.0,1017.0,541.0,603.0,1018.0
0,384.0,415.0,773.0,541.0,541.0,541.0,541.0,384.0,384.0,384.0,384.0,426.0,426.0,426.0,426.0,499.0,499.0,499.0,507.0,507.0,507.0,507.0,491.0,527.0,527.0,527.0,527.0,415.0,415.0,415.0,415.0,493.0,493.0,493.0,493.0,521.0,521.0,521.0,603.0,603.0,603.0,603.0,536.0,773.0,773.0,773.0,773.0,826.0,826.0,826.0,826.0,934.0,934.0,934.0,934.0,884.0,884.0,884.0,1018.0,1018.0,1018.0,1018.0,1021.0,491.0,536.0,1021.0,488.8888888888889,540.1111111111111,498.77777777777777,157.0,188.0,1020.0,541.0,603.0,1021.0
0,384.0,415.0,826.0,384.0,384.0,384.0,426.0,426.0,426.0,426.0,499.0,499.0,499.0,507.0,507.0,507.0,507.0,491.0,491.0,491.0,491.0,536.0,536.0,415.0,415.0,415.0,493.0,493.0,493.0,493.0,521.0,521.0,521.0,603.0,603.0,603.0,603.0,536.0,536.0,536.0,536.0,494.0,494.0,826.0,826.0,826.0,934.0,934.0,934.0,934.0,884.0,884.0,884.0,1018.0,1018.0,1018.0,1018.0,1021.0,1021.0,1021.0,1021.0,898.0,898.0,536.0,494.0,898.0,488.6666666666667,535.6222222222223,601.8222222222222,157.0,188.0,1020.0,536.0,603.0,1021.0
0,426.0,353.0,775.0,426.0,426.0,426.0,499.0,499.0,499.0,507.0,507.0,507.0,507.0,491.0,491.0,491.0,491.0,536.0,536.0,536.0,536.0,463.0,463.0,493.0,493.0,493.0,521.0,521.0,521.0,603.0,603.0,603.0,603.0,536.0,536.0,536.0,536.0,494.0,494.0,494.0,494.0,353.0,353.0,934.0,934.0,934.0,884.0,884.0,884.0,1018.0,1018.0,1018.0,1018.0,1021.0,1021.0,1021.0,1021.0,898.0,898.0,898.0,898.0,775.0,775.0,463.0,353.0,775.0,487.2888888888889,520.1111111111111,676.0888888888888,157.0,250.0,1020.0,536.0,603.0,1021.0
0,463.0,328.0,706.0,499.0,499.0,507.0,507.0,507.0,507.0,491.0,491.0,491.0,491.0,536.0,536.0,536.0,536.0,463.0,463.0,463.0,463.0,520.0,520.0,521.0,521.0,603.0,603.0,603.0,603.0,536.0,536.0,536.0,536.0,494.0,494.0,494.0,494.0,353.0,353.0,353.0,353.0,328.0,328.0,884.0,884.0,1018.0,1018.0,1018.0,1018.0,1021.0,1021.0,1021.0,1021.0,898.0,898.0,898.0,898.0,775.0,775.0,775.0,775.0,706.0,706.0,520.0,328.0,706.0,488.31111111111113,497.1333333333333,741.8222222222222,157.0,275.0,933.0,536.0,603.0,1021.0
