,emg_0,emg_1,emg_2,emg_prev_0_0,emg_prev_0_1,emg_prev_0_2,emg_prev_0_3,emg_prev_0_4,emg_prev_0_5,emg_prev_0_6,emg_prev_0_7,emg_prev_0_8,emg_prev_0_9,emg_prev_0_10,emg_prev_0_11,emg_prev_0_12,emg_prev_0_13,emg_prev_0_14,emg_prev_0_15,emg_prev_0_16,emg_prev_0_17,emg_prev_0_18,emg_prev_0_19,emg_prev_1_0,emg_prev_1_1,emg_prev_1_2,emg_prev_1_3,emg_prev_1_4,emg_prev_1_5,emg_prev_1_6,emg_prev_1_7,emg_prev_1_8,emg_prev_1_9,emg_prev_1_10,emg_prev_1_11,emg_prev_1_12,emg_prev_1_13,emg_prev_1_14,emg_prev_1_15,emg_prev_1_16,emg_prev_1_17,emg_prev_1_18,emg_prev_1_19,emg_prev_2_0,emg_prev_2_1,emg_prev_2_2,emg_prev_2_3,emg_prev_2_4,emg_prev_2_5,emg_prev_2_6,emg_prev_2_7,emg_prev_2_8,emg_prev_2_9,emg_prev_2_10,emg_prev_2_11,emg_prev_2_12,emg_prev_2_13,emg_prev_2_14,emg_prev_2_15,emg_prev_2_16,emg_prev_2_17,emg_prev_2_18,emg_prev_2_19,emg_max_0,emg_max_1,emg_max_2,emg_min_0,emg_min_1,emg_min_2,emg_med_0,emg_med_1,emg_med_2,emg_ampl_0,emg_ampl_1,emg_ampl_2
0,0.0,0.0,0.0,0.0,0.0,0.0,0.0,0.0,0.0,0.0,0.0,0.0,0.0,0.0,0.0,0.0,0.0,0.0,0.0,0.0,0.0,0.0,0.0,0.0,0.0,0.0,0.0,0.0,0.0,0.0,0.0,0.0,0.0,0.0,0.0,0.0,0.0,0.0,0.0,0.0,0.0,0.0,0.0,0.0,0.0,0.0,0.0,0.0,0.0,0.0,0.0,0.0,0.0,0.0,0.0,0.0,0.0,0.0,0.0,0.0,0.0,0.0,0.0,0.0,0.0,0.0,0.0,0.0,0.0,0.0,0.0,0.0,0.0,0.0,0.0
0,508.0,495.0,508.0,507.0,507.0,507.0,507.0,507.0,507.0,507.0,507.0,507.0,507.0,507.0,507.0,507.0,507.0,507.0,508.0,508.0,508.0,508.0,508.0,496.0,496.0,496.0,496.0,496.0,496.0,496.0,496.0,496.0,496.0,496.0,496.0,496.0,496.0,496.0,495.0,495.0,495.0,495.0,495.0,521.0,521.0,521.0,521.0,521.0,521.0,521.0,521.0,521.0,521.0,521.0,521.0,521.0,521.0,521.0,508.0,508.0,508.0,508.0,508.0,508.0,496.0,521.0,507.0,495.0,508.0,507.46666666666664,496.2,519.6,1.0,2.0,14.0
0,507.0,498.0,497.0,508.0,508.0,508.0,508.0,508.0,508.0,508.0,508.0,508.0,508.0,508.0,508.0,508.0,508.0,507.0,507.0,507.0,507.0,507.0,507.0,495.0,495.0,495.0,495.0,495.0,495.0,495.0,495.0,495.0,495.0,495.0,495.0,495.0,495.0,498.0,498.0,498.0,498.0,498.0,498.0,508.0,508.0,508.0,508.0,508.0,508.0,508.0,508.0,508.0,508.0,508.0,508.0,508.0,508.0,497.0,497.0,497.0,497.0,497.0,497.0,508.0,498.0,508.0,507.0,495.0,497.0,507.6666666666667,495.53333333333336,509.93333333333334,1.0,3.0,24.0
0,507.0,496.0,500.0,508.0,508.0,507.0,507.0,507.0,507.0,507.0,507.0,507.0,507.0,507.0,507.0,507.0,507.0,507.0,507.0,507.0,507.0,507.0,507.0,495.0,495.0,498.0,498.0,498.0,498.0,498.0,498.0,498.0,498.0,498.0,498.0,498.0,498.0,496.0,496.0,496.0,496.0,496.0,496.0,508.0,508.0,497.0,497.0,497.0,497.0,497.0,497.0,497.0,497.0,497.0,497.0,497.0,497.0,500.0,500.0,500.0,500.0,500.0,500.0,508.0,498.0,508.0,507.0,495.0,497.0,507.4,496.46666666666664,501.9,1.0,3.0,11.0
0,507.0,498.0,496.0,507.0,507.0,507.0,507.0,507.0,507.0,507.0,507.0,507.0,507.0,507.0,507.0,507.0,507.0,507.0,507.0,507.0,507.0,507.0,507.0,498.0,498.0,496.0,496.0,496.0,496.0,496.0,496.0,496.0,496.0,496.0,496.0,496.0,498.0,498.0,498.0,498.0,498.0,498.0,498.0,497.0,497.0,500.0,500.0,500.0,500.0,500.0,500.0,500.0,500.0,500.0,500.0,500.0,496.0,496.0,496.0,496.0,496.0,496.0,496.0,507.0,498.0,500.0,507.0,496.0,496.0,507.0,497.26666666666665,497.8666666666667,0.0,2.0,4.0
0,507.0,502.0,486.0,507.0,507.0,507.0,507.0,507.0,507.0,507.0,507.0,507.0,507.0,507.0,507.0,507.0,507.0,507.0,507.0,507.0,507.0,507.0,507.0,498.0,498.0,498.0,498.0,498.0,498.0,498.0,498.0,498.0,498.0,498.0,498.0,498.0,498.0,498.0,502.0,502.0,502.0,502.0,502.0,496.0,496.0,496.0,496.0,496.0,496.0,496.0,496.0,496.0,496.0,496.0,496.0,496.0,496.0,496.0,486.0,486.0,486.0,486.0,486.0,507.0,502.0,496.0,507.0,498.0,486.0,507.0,498.06666666666666,495.53333333333336,0.0,6.0,14.0
0,510.0,494.0,487.0,507.0,507.0,507.0,507.0,507.0,507.0,507.0,507.0,507.0,507.0,507.0,507.0,507.0,507.0,507.0,507.0,507.0,510.0,510.0,510.0,498.0,498.0,498.0,502.0,502.0,502.0,502.0,502.0,502.0,502.0,502.0,502.0,502.0,502.0,502.0,502.0,502.0,494.0,494.0,494.0,496.0,496.0,496.0,486.0,486.0,486.0,486.0,486.0,486.0,486.0,486.0,486.0,486.0,486.0,486.0,486.0,486.0,487.0,487.0,487.0,510.0,502.0,496.0,507.0,494.0,486.0,507.3,499.46666666666664,490.43333333333334,3.0,8.0,10.0
0,510.0,493.0,495.0,510.0,510.0,510.0,510.0,510.0,510.0,510.0,510.0,510.0,510.0,510.0,510.0,510.0,510.0,510.0,510.0,510.0,510.0,510.0,510.0,494.0,494.0,494.0,494.0,494.0,494.0,494.0,494.0,494.0,494.0,494.0,494.0,494.0,494.0,494.0,494.0,494.0,493.0,493.0,493.0,487.0,487.0,487.0,487.0,487.0,487.0,487.0,487.0,487.0,487.0,487.0,487.0,487.0,487.0,487.0,487.0,487.0,495.0,495.0,495.0,510.0,494.0,495.0,510.0,493.0,487.0,509.3,495.8,487.3,3.0,9.0,9.0
0,510.0,485.0,490.0,510.0,510.0,510.0,510.0,510.0,510.0,510.0,510.0,510.0,510.0,510.0,510.0,510.0,510.0,510.0,510.0,510.0,510.0,510.0,510.0,494.0,493.0,493.0,493.0,493.0,493.0,493.0,493.0,493.0,493.0,493.0,493.0,493.0,493.0,493.0,493.0,493.0,485.0,485.0,485.0,487.0,495.0,495.0,495.0,495.0,495.0,495.0,495.0,495.0,495.0,495.0,495.0,495.0,495.0,495.0,495.0,495.0,490.0,490.0,490.0,510.0,494.0,495.0,510.0,485.0,487.0,510.0,492.56666666666666,491.56666666666666,0.0,9.0,8.0
0,511.0,495.0,492.0,510.0,510.0,510.0,510.0,510.0,510.0,510.0,510.0,510.0,510.0,510.0,510.0,510.0,510.0,510.0,510.0,511.0,511.0,511.0,511.0,485.0,485.0,485.0,485.0,485.0,485.0,485.0,485.0,485.0,485.0,485.0,485.0,485.0,485.0,485.0,485.0,495.0,495.0,495.0,495.0,490.0,490.0,490.0,490.0,490.0,490.0,490.0,490.0,490.0,490.0,490.0,490.0,490.0,490.0,490.0,490.0,492.0,492.0,492.0,492.0,511.0,495.0,492.0,510.0,485.0,490.0,510.1333333333333,487.93333333333334,491.26666666666665,1.0,10.0,5.0
0,510.0,499.0,497.0,511.0,511.0,511.0,511.0,511.0,511.0,511.0,511.0,511.0,511.0,511.0,510.0,510.0,510.0,510.0,510.0,510.0,510.0,510.0,510.0,495.0,495.0,495.0,495.0,495.0,495.0,495.0,495.0,495.0,495.0,495.0,499.0,499.0,499.0,499.0,499.0,499.0,499.0,499.0,499.0,492.0,492.0,492.0,492.0,492.0,492.0,492.0,492.0,492.0,492.0,492.0,497.0,497.0,497.0,497.0,497.0,497.0,497.0,497.0,497.0,511.0,499.0,497.0,510.0,495.0,492.0,510.6,495.2,493.3,1.0,14.0,7.0
0,512.0,507.0,507.0,510.0,510.0,510.0,510.0,510.0,510.0,510.0,510.0,510.0,510.0,510.0,510.0,510.0,512.0,512.0,512.0,512.0,512.0,512.0,512.0,499.0,499.0,499.0,499.0,499.0,499.0,499.0,499.0,499.0,499.0,499.0,499.0,499.0,507.0,507.0,507.0,507.0,507.0,507.0,507.0,497.0,497.0,497.0,497.0,497.0,497.0,497.0,497.0,497.0,497.0,497.0,497.0,497.0,507.0,507.0,507.0,507.0,507.0,507.0,507.0,512.0,507.0,507.0,510.0,499.0,497.0,510.6666666666667,499.53333333333336,497.6666666666667,2.0,12.0,15.0
0,511.0,521.0,516.0,512.0,512.0,512.0,512.0,512.0,512.0,512.0,512.0,512.0,512.0,512.0,512.0,512.0,512.0,511.0,511.0,511.0,511.0,511.0,511.0,507.0,507.0,507.0,507.0,507.0,507.0,507.0,507.0,507.0,507.0,507.0,507.0,507.0,507.0,521.0,521.0,521.0,521.0,521.0,521.0,507.0,507.0,507.0,507.0,507.0,507.0,507.0,507.0,507.0,507.0,507.0,507.0,507.0,507.0,516.0,516.0,516.0,516.0,516.0,516.0,512.0,521.0,516.0,511.0,507.0,507.0,511.3,507.2,505.8333333333333,2.0,22.0,19.0
0,510.0,531.0,519.0,512.0,512.0,511.0,511.0,511.0,511.0,511.0,511.0,511.0,511.0,511.0,511.0,511.0,511.0,511.0,510.0,510.0,510.0,510.0,510.0,507.0,507.0,521.0,521.0,521.0,521.0,521.0,521.0,521.0,521.0,521.0,521.0,521.0,521.0,521.0,531.0,531.0,531.0,531.0,531.0,507.0,507.0,516.0,516.0,516.0,516.0,516.0,516.0,516.0,516.0,516.0,516.0,516.0,516.0,516.0,519.0,519.0,519.0,519.0,519.0,512.0,531.0,519.0,510.0,507.0,507.0,511.23333333333335,517.0666666666667,512.9,2.0,24.0,12.0
0,511.0,533.0,519.0,510.0,510.0,510.0,510.0,510.0,510.0,510.0,510.0,510.0,510.0,510.0,510.0,511.0,511.0,511.0,511.0,511.0,511.0,511.0,511.0,531.0,531.0,531.0,531.0,531.0,531.0,531.0,531.0,531.0,531.0,531.0,531.0,533.0,533.0,533.0,533.0,533.0,533.0,533.0,533.0,519.0,519.0,519.0,519.0,519.0,519.0,519.0,519.0,519.0,519.0,519.0,519.0,519.0,519.0,519.0,519.0,519.0,519.0,519.0,519.0,511.0,533.0,519.0,510.0,531.0,519.0,510.5,528.8,518.2,1.0,12.0,3.0
0,510.0,535.0,530.0,511.0,511.0,511.0,511.0,511.0,511.0,511.0,511.0,511.0,511.0,511.0,511.0,511.0,511.0,511.0,511.0,511.0,510.0,510.0,510.0,533.0,533.0,533.0,533.0,533.0,533.0,533.0,533.0,533.0,533.0,533.0,533.0,533.0,533.0,533.0,533.0,533.0,535.0,535.0,535.0,519.0,519.0,519.0,519.0,519.0,519.0,519.0,519.0,519.0,519.0,519.0,519.0,519.0,519.0,519.0,519.0,519.0,530.0,530.0,530.0,511.0,535.0,530.0,510.0,533.0,519.0,510.6,532.6,520.1,1.0,4.0,11.0
0,508.0,535.0,540.0,511.0,511.0,511.0,511.0,510.0,510.0,510.0,510.0,510.0,510.0,510.0,510.0,508.0,508.0,508.0,508.0,508.0,508.0,508.0,508.0,533.0,533.0,533.0,533.0,535.0,535.0,535.0,535.0,535.0,535.0,535.0,535.0,535.0,535.0,535.0,535.0,535.0,535.0,535.0,535.0,519.0,519.0,519.0,519.0,530.0,530.0,530.0,530.0,530.0,530.0,530.0,530.0,540.0,540.0,540.0,540.0,540.0,540.0,540.0,540.0,511.0,535.0,540.0,508.0,533.0,519.0,509.93333333333334,534.0666666666667,527.5333333333333,3.0,2.0,21.0
0,508.0,530.0,545.0,508.0,508.0,508.0,508.0,508.0,508.0,508.0,508.0,508.0,508.0,508.0,508.0,508.0,508.0,508.0,508.0,508.0,508.0,508.0,508.0,535.0,535.0,535.0,535.0,535.0,535.0,535.0,535.0,535.0,535.0,535.0,530.0,530.0,530.0,530.0,530.0,530.0,530.0,530.0,530.0,540.0,540.0,540.0,540.0,540.0,540.0,540.0,540.0,540.0,540.0,540.0,545.0,545.0,545.0,545.0,545.0,545.0,545.0,545.0,545.0,508.0,535.0,545.0,508.0,530.0,540.0,508.4,533.6666666666666,539.3333333333334,2.0,5.0,15.0
0,507.0,519.0,543.0,508.0,508.0,508.0,508.0,508.0,508.0,508.0,508.0,508.0,508.0,508.0,508.0,508.0,508.0,508.0,507.0,507.0,507.0,507.0,507.0,530.0,530.0,530.0,530.0,530.0,530.0,530.0,530.0,530.0,530.0,530.0,530.0,530.0,530.0,530.0,519.0,519.0,519.0,519.0,519.0,545.0,545.0,545.0,545.0,545.0,545.0,545.0,545.0,545.0,545.0,545.0,545.0,545.0,545.0,545.0,543.0,543.0,543.0,543.0,543.0,508.0,530.0,545.0,507.0,519.0,543.0,507.8666666666667,529.8666666666667,543.4,1.0,16.0,5.0
0,508.0,509.0,538.0,507.0,507.0,507.0,507.0,507.0,507.0,507.0,507.0,507.0,507.0,507.0,507.0,508.0,508.0,508.0,508.0,508.0,508.0,508.0,508.0,519.0,519.0,519.0,519.0,519.0,519.0,519.0,519.0,519.0,519.0,519.0,519.0,509.0,509.0,509.0,509.0,509.0,509.0,509.0,509.0,543.0,543.0,543.0,543.0,543.0,543.0,543.0,543.0,543.0,543.0,543.0,543.0,538.0,538.0,538.0,538.0,538.0,538.0,538.0,538.0,508.0,519.0,543.0,507.0,509.0,538.0,507.4,518.5,542.1666666666666,1.0,21.0,7.0
0,508.0,502.0,526.0,508.0,508.0,508.0,508.0,508.0,508.0,508.0,508.0,508.0,508.0,508.0,508.0,508.0,508.0,508.0,508.0,508.0,508.0,508.0,508.0,509.0,509.0,509.0,509.0,509.0,509.0,509.0,509.0,509.0,509.0,509.0,509.0,509.0,509.0,509.0,509.0,509.0,502.0,502.0,502.0,538.0,538.0,538.0,538.0,538.0,538.0,538.0,538.0,538.0,538.0,538.0,538.0,538.0,538.0,538.0,538.0,538.0,526.0,526.0,526.0,508.0,509.0,538.0,508.0,502.0,526.0,507.7,511.3,538.3,1.0,17.0,17.0
0,508.0,499.0,503.0,508.0,508.0,508.0,508.0,508.0,508.0,508.0,508.0,508.0,508.0,508.0,508.0,508.0,508.0,508.0,508.0,508.0,508.0,508.0,508.0,502.0,502.0,502.0,502.0,502.0,502.0,502.0,502.0,502.0,502.0,502.0,499.0,499.0,499.0,499.0,499.0,499.0,499.0,499.0,499.0,526.0,526.0,526.0,526.0,526.0,526.0,526.0,526.0,526.0,526.0,526.0,503.0,503.0,503.0,503.0,503.0,503.0,503.0,503.0,503.0,508.0,502.0,526.0,508.0,499.0,503.0,508.0,502.5,521.5,0.0,10.0,35.0
0,507.0,496.0,501.0,508.0,508.0,508.0,508.0,508.0,508.0,508.0,508.0,508.0,508.0,508.0,508.0,508.0,508.0,508.0,507.0,507.0,507.0,507.0,507.0,499.0,499.0,499.0,499.0,499.0,499.0,499.0,499.0,499.0,499.0,499.0,499.0,499.0,499.0,499.0,496.0,496.0,496.0,496.0,496.0,503.0,503.0,503.0,503.0,503.0,503.0,503.0,503.0,503.0,503.0,503.0,503.0,503.0,503.0,503.0,501.0,501.0,501.0,501.0,501.0,508.0,499.0,503.0,507.0,496.0,501.0,507.8333333333333,499.1,507.26666666666665,1.0,6.0,25.0
0,508.0,499.0,501.0,507.0,507.0,507.0,507.0,507.0,507.0,507.0,507.0,507.0,507.0,507.0,507.0,507.0,507.0,507.0,508.0,508.0,508.0,508.0,508.0,496.0,496.0,496.0,496.0,496.0,496.0,496.0,496.0,496.0,496.0,496.0,496.0,496.0,496.0,496.0,499.0,499.0,499.0,499.0,499.0,501.0,501.0,501.0,501.0,501.0,501.0,501.0,501.0,501.0,501.0,501.0,501.0,501.0,501.0,501.0,501.0,501.0,501.0,501.0,501.0,508.0,499.0,501.0,507.0,496.0,501.0,507.43333333333334,497.3,501.6,1.0,3.0,2.0
0,507.0,498.0,493.0,508.0,508.0,508.0,508.0,508.0,508.0,508.0,508.0,508.0,508.0,507.0,507.0,507.0,507.0,507.0,507.0,507.0,507.0,507.0,507.0,499.0,499.0,499.0,499.0,499.0,499.0,499.0,499.0,499.0,499.0,498.0,498.0,498.0,498.0,498.0,498.0,498.0,498.0,498.0,498.0,501.0,501.0,501.0,501.0,501.0,501.0,501.0,501.0,501.0,501.0,493.0,493.0,493.0,493.0,493.0,493.0,493.0,493.0,493.0,493.0,508.0,499.0,501.0,507.0,498.0,493.0,507.46666666666664,498.0,498.6,1.0,3.0,8.0
0,508.0,502.0,496.0,507.0,507.0,507.0,507.0,507.0,507.0,507.0,507.0,507.0,507.0,507.0,507.0,508.0,508.0,508.0,508.0,508.0,508.0,508.0,508.0,498.0,498.0,498.0,498.0,498.0,498.0,498.0,498.0,498.0,498.0,498.0,498.0,502.0,502.0,502.0,502.0,502.0,502.0,502.0,502.0,493.0,493.0,493.0,493.0,493.0,493.0,493.0,493.0,493.0,493.0,493.0,493.0,496.0,496.0,496.0,496.0,496.0,496.0,496.0,496.0,508.0,502.0,496.0,507.0,498.0,493.0,507.56666666666666,499.3666666666667,496.2,1.0,4.0,8.0
0,507.0,493.0,494.0,508.0,508.0,508.0,508.0,508.0,508.0,508.0,508.0,508.0,508.0,508.0,508.0,508.0,507.0,507.0,507.0,507.0,507.0,507.0,507.0,502.0,502.0,502.0,502.0,502.0,502.0,502.0,502.0,502.0,502.0,502.0,502.0,502.0,493.0,493.0,493.0,493.0,493.0,493.0,493.0,496.0,496.0,496.0,496.0,496.0,496.0,496.0,496.0,496.0,496.0,496.0,496.0,496.0,494.0,494.0,494.0,494.0,494.0,494.0,494.0,508.0,502.0,496.0,507.0,493.0,494.0,507.43333333333334,498.56666666666666,494.53333333333336,1.0,9.0,3.0
0,507.0,499.0,489.0,508.0,508.0,507.0,507.0,507.0,507.0,507.0,507.0,507.0,507.0,507.0,507.0,507.0,507.0,507.0,507.0,507.0,507.0,507.0,507.0,502.0,502.0,493.0,493.0,493.0,493.0,493.0,493.0,493.0,493.0,493.0,493.0,493.0,493.0,493.0,499.0,499.0,499.0,499.0,499.0,496.0,496.0,494.0,494.0,494.0,494.0,494.0,494.0,494.0,494.0,494.0,494.0,494.0,494.0,494.0,489.0,489.0,489.0,489.0,489.0,508.0,502.0,496.0,507.0,493.0,489.0,507.4,497.6,493.96666666666664,1.0,9.0,7.0
0,509.0,496.0,478.0,507.0,507.0,507.0,507.0,509.0,509.0,509.0,509.0,509.0,509.0,509.0,509.0,509.0,509.0,509.0,509.0,509.0,509.0,509.0,509.0,499.0,499.0,499.0,499.0,496.0,496.0,496.0,496.0,496.0,496.0,496.0,496.0,496.0,496.0,496.0,496.0,496.0,496.0,496.0,496.0,489.0,489.0,489.0,489.0,478.0,478.0,478.0,478.0,478.0,478.0,478.0,478.0,478.0,478.0,478.0,478.0,478.0,478.0,478.0,478.0,509.0,499.0,489.0,507.0,496.0,478.0,508.06666666666666,496.2,484.1333333333333,2.0,6.0,16.0
0,510.0,494.0,465.0,509.0,509.0,509.0,509.0,509.0,509.0,509.0,509.0,509.0,509.0,509.0,509.0,509.0,510.0,510.0,510.0,510.0,510.0,510.0,510.0,496.0,496.0,496.0,496.0,496.0,496.0,496.0,496.0,496.0,496.0,496.0,496.0,496.0,494.0,494.0,494.0,494.0,494.0,494.0,494.0,478.0,478.0,478.0,478.0,478.0,478.0,478.0,478.0,478.0,478.0,478.0,478.0,478.0,465.0,465.0,465.0,465.0,465.0,465.0,465.0,510.0,496.0,478.0,509.0,494.0,465.0,509.03333333333336,495.8333333333333,476.06666666666666,3.0,5.0,24.0
0,513.0,493.0,476.0,510.0,510.0,510.0,510.0,510.0,510.0,510.0,510.0,510.0,510.0,510.0,510.0,510.0,510.0,510.0,513.0,513.0,513.0,513.0,513.0,494.0,494.0,494.0,494.0,494.0,494.0,494.0,494.0,494.0,494.0,494.0,494.0,494.0,494.0,494.0,493.0,493.0,493.0,493.0,493.0,465.0,465.0,465.0,465.0,465.0,465.0,465.0,465.0,465.0,465.0,465.0,465.0,465.0,465.0,465.0,476.0,476.0,476.0,476.0,476.0,513.0,494.0,476.0,510.0,493.0,465.0,510.1666666666667,494.5,471.1666666666667,4.0,3.0,13.0
0,514.0,490.0,483.0,510.0,510.0,510.0,510.0,510.0,510.0,510.0,510.0,513.0,513.0,513.0,513.0,513.0,513.0,513.0,513.0,513.0,513.0,514.0,514.0,494.0,494.0,494.0,494.0,494.0,494.0,494.0,494.0,493.0,493.0,493.0,493.0,493.0,493.0,493.0,493.0,493.0,493.0,490.0,490.0,465.0,465.0,465.0,465.0,465.0,465.0,465.0,465.0,476.0,476.0,476.0,476.0,476.0,476.0,476.0,476.0,476.0,476.0,483.0,483.0,514.0,494.0,483.0,510.0,490.0,465.0,511.1666666666667,493.6,471.1666666666667,5.0,6.0,18.0
0,511.0,498.0,488.0,513.0,513.0,513.0,513.0,513.0,514.0,514.0,514.0,514.0,514.0,514.0,514.0,514.0,514.0,514.0,511.0,511.0,511.0,511.0,511.0,493.0,493.0,493.0,493.0,493.0,490.0,490.0,490.0,490.0,490.0,490.0,490.0,490.0,490.0,490.0,498.0,498.0,498.0,498.0,498.0,476.0,476.0,476.0,476.0,476.0,483.0,483.0,483.0,483.0,483.0,483.0,483.0,483.0,483.0,483.0,488.0,488.0,488.0,488.0,488.0,514.0,498.0,488.0,511.0,490.0,476.0,512.5,493.0,478.5,4.0,8.0,23.0
0,511.0,511.0,493.0,514.0,514.0,514.0,514.0,511.0,511.0,511.0,511.0,511.0,511.0,511.0,511.0,511.0,511.0,511.0,511.0,511.0,511.0,511.0,511.0,490.0,490.0,490.0,490.0,498.0,498.0,498.0,498.0,498.0,498.0,498.0,498.0,498.0,498.0,511.0,511.0,511.0,511.0,511.0,511.0,483.0,483.0,483.0,483.0,488.0,488.0,488.0,488.0,488.0,488.0,488.0,488.0,488.0,488.0,493.0,493.0,493.0,493.0,493.0,493.0,514.0,511.0,493.0,511.0,490.0,483.0,512.2666666666667,497.26666666666665,485.73333333333335,3.0,21.0,17.0
0,511.0,520.0,505.0,511.0,511.0,511.0,511.0,511.0,511.0,511.0,511.0,511.0,511.0,511.0,511.0,511.0,511.0,511.0,511.0,511.0,511.0,511.0,511.0,498.0,498.0,498.0,498.0,498.0,498.0,511.0,511.0,511.0,511.0,511.0,511.0,511.0,511.0,511.0,511.0,520.0,520.0,520.0,520.0,488.0,488.0,488.0,488.0,488.0,488.0,493.0,493.0,493.0,493.0,493.0,493.0,493.0,493.0,493.0,493.0,505.0,505.0,505.0,505.0,511.0,520.0,505.0,511.0,498.0,488.0,511.6,503.6666666666667,490.93333333333334,3.0,30.0,22.0
0,511.0,527.0,515.0,511.0,511.0,511.0,511.0,511.0,511.0,511.0,511.0,511.0,511.0,511.0,511.0,511.0,511.0,511.0,511.0,511.0,511.0,511.0,511.0,511.0,511.0,511.0,511.0,520.0,520.0,520.0,520.0,520.0,520.0,520.0,520.0,520.0,527.0,527.0,527.0,527.0,527.0,527.0,527.0,493.0,493.0,493.0,493.0,505.0,505.0,505.0,505.0,505.0,505.0,505.0,505.0,505.0,515.0,515.0,515.0,515.0,515.0,515.0,515.0,511.0,527.0,515.0,511.0,511.0,493.0,511.0,515.7,501.06666666666666,0.0,29.0,27.0
0,510.0,534.0,521.0,511.0,511.0,511.0,511.0,511.0,511.0,511.0,511.0,511.0,511.0,511.0,511.0,511.0,511.0,511.0,510.0,510.0,510.0,510.0,510.0,520.0,520.0,520.0,527.0,527.0,527.0,527.0,527.0,527.0,527.0,527.0,527.0,527.0,527.0,527.0,534.0,534.0,534.0,534.0,534.0,505.0,505.0,505.0,515.0,515.0,515.0,515.0,515.0,515.0,515.0,515.0,515.0,515.0,515.0,515.0,521.0,521.0,521.0,521.0,521.0,511.0,534.0,521.0,510.0,520.0,505.0,510.8333333333333,523.9333333333333,510.06666666666666,1.0,23.0,28.0
0,508.0,540.0,536.0,511.0,511.0,511.0,511.0,511.0,510.0,510.0,510.0,510.0,510.0,510.0,510.0,510.0,510.0,510.0,508.0,508.0,508.0,508.0,508.0,527.0,527.0,527.0,527.0,527.0,534.0,534.0,534.0,534.0,534.0,534.0,534.0,534.0,534.0,534.0,540.0,540.0,540.0,540.0,540.0,515.0,515.0,515.0,515.0,515.0,521.0,521.0,521.0,521.0,521.0,521.0,521.0,521.0,521.0,521.0,536.0,536.0,536.0,536.0,536.0,511.0,540.0,536.0,508.0,527.0,515.0,510.1666666666667,530.8,519.5,3.0,20.0,31.0
0,509.0,544.0,544.0,508.0,508.0,508.0,508.0,508.0,508.0,508.0,509.0,509.0,509.0,509.0,509.0,509.0,509.0,509.0,509.0,509.0,509.0,509.0,509.0,540.0,540.0,540.0,540.0,540.0,540.0,540.0,544.0,544.0,544.0,544.0,544.0,544.0,544.0,544.0,544.0,544.0,544.0,544.0,544.0,536.0,536.0,536.0,536.0,536.0,536.0,536.0,544.0,544.0,544.0,544.0,544.0,544.0,544.0,544.0,544.0,544.0,544.0,544.0,544.0,509.0,544.0,544.0,508.0,540.0,536.0,508.9,540.3333333333334,535.9666666666667,2.0,10.0,23.0
0,508.0,526.0,544.0,509.0,509.0,509.0,509.0,509.0,509.0,509.0,509.0,509.0,509.0,509.0,509.0,509.0,509.0,509.0,508.0,508.0,508.0,508.0,508.0,544.0,544.0,544.0,544.0,544.0,544.0,544.0,544.0,544.0,544.0,544.0,544.0,544.0,544.0,544.0,526.0,526.0,526.0,526.0,526.0,544.0,544.0,544.0,544.0,544.0,544.0,544.0,544.0,544.0,544.0,544.0,544.0,544.0,544.0,544.0,544.0,544.0,544.0,544.0,544.0,509.0,544.0,544.0,508.0,526.0,544.0,508.56666666666666,539.9333333333333,541.8666666666667,1.0,18.0,8.0
0,509.0,519.0,543.0,509.0,508.0,508.0,508.0,508.0,508.0,508.0,508.0,508.0,508.0,508.0,508.0,508.0,509.0,509.0,509.0,509.0,509.0,509.0,509.0,544.0,526.0,526.0,526.0,526.0,526.0,526.0,526.0,526.0,526.0,526.0,526.0,526.0,519.0,519.0,519.0,519.0,519.0,519.0,519.0,544.0,544.0,544.0,544.0,544.0,544.0,544.0,544.0,544.0,544.0,544.0,544.0,544.0,543.0,543.0,543.0,543.0,543.0,543.0,543.0,509.0,544.0,544.0,508.0,519.0,543.0,508.6,530.9666666666667,543.7666666666667,1.0,25.0,1.0
0,510.0,510.0,540.0,508.0,508.0,508.0,509.0,509.0,509.0,509.0,509.0,509.0,509.0,509.0,509.0,509.0,510.0,510.0,510.0,510.0,510.0,510.0,510.0,526.0,526.0,526.0,519.0,519.0,519.0,519.0,519.0,519.0,519.0,519.0,519.0,519.0,510.0,510.0,510.0,510.0,510.0,510.0,510.0,544.0,544.0,544.0,543.0,543.0,543.0,543.0,543.0,543.0,543.0,543.0,543.0,543.0,540.0,540.0,540.0,540.0,540.0,540.0,540.0,510.0,526.0,544.0,508.0,510.0,540.0,508.76666666666665,521.9666666666667,542.9666666666667,2.0,34.0,4.0
0,511.0,509.0,537.0,509.0,509.0,510.0,510.0,510.0,510.0,510.0,510.0,510.0,510.0,510.0,510.0,510.0,511.0,511.0,511.0,511.0,511.0,511.0,511.0,519.0,519.0,510.0,510.0,510.0,510.0,510.0,510.0,510.0,510.0,510.0,510.0,510.0,509.0,509.0,509.0,509.0,509.0,509.0,509.0,543.0,543.0,540.0,540.0,540.0,540.0,540.0,540.0,540.0,540.0,540.0,540.0,540.0,537.0,537.0,537.0,537.0,537.0,537.0,537.0,511.0,519.0,543.0,509.0,509.0,537.0,509.7,514.1666666666666,540.7666666666667,3.0,17.0,7.0
0,511.0,497.0,526.0,511.0,511.0,511.0,511.0,511.0,511.0,511.0,511.0,511.0,511.0,511.0,511.0,511.0,511.0,511.0,511.0,511.0,511.0,511.0,511.0,509.0,509.0,509.0,509.0,509.0,509.0,509.0,509.0,509.0,509.0,509.0,509.0,509.0,497.0,497.0,497.0,497.0,497.0,497.0,497.0,537.0,537.0,537.0,537.0,537.0,537.0,537.0,537.0,537.0,537.0,537.0,537.0,537.0,526.0,526.0,526.0,526.0,526.0,526.0,526.0,511.0,509.0,537.0,511.0,497.0,526.0,510.6666666666667,506.53333333333336,535.4333333333333,1.0,13.0,14.0
0,508.0,497.0,514.0,511.0,511.0,511.0,511.0,511.0,511.0,508.0,508.0,508.0,508.0,508.0,508.0,508.0,508.0,508.0,508.0,508.0,508.0,508.0,508.0,497.0,497.0,497.0,497.0,497.0,497.0,497.0,497.0,497.0,497.0,497.0,497.0,497.0,497.0,497.0,497.0,497.0,497.0,497.0,497.0,526.0,526.0,526.0,526.0,526.0,526.0,514.0,514.0,514.0,514.0,514.0,514.0,514.0,514.0,514.0,514.0,514.0,514.0,514.0,514.0,511.0,497.0,526.0,508.0,497.0,514.0,509.6,498.6,521.8666666666667,3.0,12.0,23.0
0,509.0,499.0,506.0,508.0,508.0,508.0,508.0,508.0,508.0,508.0,508.0,508.0,508.0,508.0,508.0,508.0,508.0,509.0,509.0,509.0,509.0,509.0,509.0,497.0,497.0,497.0,497.0,497.0,497.0,497.0,497.0,497.0,497.0,497.0,497.0,497.0,497.0,499.0,499.0,499.0,499.0,499.0,499.0,514.0,514.0,514.0,514.0,514.0,514.0,514.0,514.0,514.0,514.0,514.0,514.0,514.0,514.0,506.0,506.0,506.0,506.0,506.0,506.0,509.0,499.0,514.0,508.0,497.0,506.0,508.6,497.4,514.0,3.0,2.0,20.0
0,509.0,498.0,507.0,508.0,508.0,508.0,508.0,509.0,509.0,509.0,509.0,509.0,509.0,509.0,509.0,509.0,509.0,509.0,509.0,509.0,509.0,509.0,509.0,497.0,497.0,497.0,497.0,499.0,499.0,499.0,499.0,499.0,499.0,499.0,499.0,499.0,499.0,499.0,498.0,498.0,498.0,498.0,498.0,514.0,514.0,514.0,514.0,506.0,506.0,506.0,506.0,506.0,506.0,506.0,506.0,506.0,506.0,506.0,507.0,507.0,507.0,507.0,507.0,509.0,499.0,514.0,508.0,497.0,506.0,508.53333333333336,497.9,509.9,1.0,2.0,8.0
0,508.0,498.0,496.0,509.0,509.0,509.0,509.0,509.0,509.0,509.0,509.0,509.0,509.0,509.0,509.0,509.0,509.0,509.0,509.0,508.0,508.0,508.0,508.0,499.0,499.0,499.0,499.0,498.0,498.0,498.0,498.0,498.0,498.0,498.0,498.0,498.0,498.0,498.0,498.0,498.0,498.0,498.0,498.0,506.0,506.0,506.0,506.0,507.0,507.0,507.0,507.0,507.0,507.0,507.0,507.0,507.0,507.0,507.0,507.0,496.0,496.0,496.0,496.0,509.0,499.0,507.0,508.0,498.0,496.0,508.76666666666665,498.26666666666665,505.8666666666667,1.0,2.0,18.0
0,508.0,501.0,495.0,509.0,509.0,509.0,509.0,509.0,509.0,508.0,508.0,508.0,508.0,508.0,508.0,508.0,508.0,508.0,508.0,508.0,508.0,508.0,508.0,498.0,498.0,498.0,498.0,498.0,498.0,498.0,498.0,498.0,498.0,498.0,498.0,498.0,498.0,498.0,501.0,501.0,501.0,501.0,501.0,507.0,507.0,507.0,507.0,507.0,507.0,496.0,496.0,496.0,496.0,496.0,496.0,496.0,496.0,496.0,495.0,495.0,495.0,495.0,495.0,509.0,501.0,507.0,508.0,498.0,495.0,508.53333333333336,498.6333333333333,501.56666666666666,1.0,3.0,12.0
0,509.0,499.0,494.0,508.0,508.0,508.0,508.0,508.0,508.0,508.0,508.0,508.0,508.0,508.0,508.0,508.0,508.0,509.0,509.0,509.0,509.0,509.0,509.0,498.0,498.0,498.0,501.0,501.0,501.0,501.0,501.0,501.0,501.0,501.0,501.0,501.0,501.0,499.0,499.0,499.0,499.0,499.0,499.0,496.0,496.0,496.0,495.0,495.0,495.0,495.0,495.0,495.0,495.0,495.0,495.0,495.0,495.0,494.0,494.0,494.0,494.0,494.0,494.0,509.0,501.0,496.0,508.0,498.0,494.0,508.3333333333333,499.3,496.7,1.0,3.0,13.0
0,509.0,494.0,493.0,508.0,508.0,508.0,509.0,509.0,509.0,509.0,509.0,509.0,509.0,509.0,509.0,509.0,509.0,509.0,509.0,509.0,509.0,509.0,509.0,501.0,501.0,501.0,499.0,499.0,499.0,499.0,499.0,499.0,499.0,499.0,499.0,499.0,499.0,494.0,494.0,494.0,494.0,494.0,494.0,495.0,495.0,495.0,494.0,494.0,494.0,494.0,494.0,494.0,494.0,494.0,494.0,494.0,494.0,493.0,493.0,493.0,493.0,493.0,493.0,509.0,501.0,495.0,508.0,494.0,493.0,508.56666666666666,498.6666666666667,494.3,1.0,7.0,3.0
0,510.0,495.0,493.0,509.0,509.0,509.0,509.0,509.0,509.0,509.0,509.0,509.0,509.0,509.0,509.0,509.0,509.0,509.0,509.0,510.0,510.0,510.0,510.0,499.0,499.0,499.0,499.0,499.0,499.0,494.0,494.0,494.0,494.0,494.0,494.0,494.0,494.0,494.0,494.0,495.0,495.0,495.0,495.0,494.0,494.0,494.0,494.0,494.0,494.0,493.0,493.0,493.0,493.0,493.0,493.0,493.0,493.0,493.0,493.0,493.0,493.0,493.0,493.0,510.0,499.0,494.0,509.0,494.0,493.0,508.96666666666664,497.1333333333333,493.7,2.0,7.0,2.0
0,510.0,488.0,489.0,509.0,509.0,509.0,509.0,509.0,509.0,510.0,510.0,510.0,510.0,510.0,510.0,510.0,510.0,510.0,510.0,510.0,510.0,510.0,510.0,494.0,494.0,494.0,494.0,494.0,494.0,495.0,495.0,495.0,495.0,495.0,495.0,495.0,495.0,488.0,488.0,488.0,488.0,488.0,488.0,493.0,493.0,493.0,493.0,493.0,493.0,493.0,493.0,493.0,493.0,493.0,493.0,493.0,493.0,489.0,489.0,489.0,489.0,489.0,489.0,510.0,495.0,493.0,509.0,488.0,489.0,509.46666666666664,494.06666666666666,492.4,1.0,11.0,5.0
0,513.0,493.0,488.0,510.0,510.0,510.0,510.0,510.0,510.0,510.0,510.0,510.0,510.0,510.0,510.0,510.0,513.0,513.0,513.0,513.0,513.0,513.0,513.0,495.0,495.0,495.0,495.0,488.0,488.0,488.0,488.0,488.0,488.0,488.0,488.0,488.0,493.0,493.0,493.0,493.0,493.0,493.0,493.0,493.0,493.0,493.0,493.0,489.0,489.0,489.0,489.0,489.0,489.0,489.0,489.0,489.0,488.0,488.0,488.0,488.0,488.0,488.0,488.0,513.0,495.0,493.0,510.0,488.0,488.0,510.4,492.06666666666666,490.6666666666667,4.0,7.0,5.0
0,512.0,499.0,489.0,510.0,510.0,513.0,513.0,513.0,513.0,513.0,513.0,513.0,513.0,513.0,513.0,513.0,512.0,512.0,512.0,512.0,512.0,512.0,512.0,488.0,488.0,493.0,493.0,493.0,493.0,493.0,493.0,493.0,493.0,493.0,493.0,493.0,499.0,499.0,499.0,499.0,499.0,499.0,499.0,489.0,489.0,488.0,488.0,488.0,488.0,488.0,488.0,488.0,488.0,488.0,488.0,488.0,489.0,489.0,489.0,489.0,489.0,489.0,489.0,513.0,499.0,489.0,510.0,488.0,488.0,511.56666666666666,492.8666666666667,488.9,3.0,11.0,5.0
0,511.0,504.0,492.0,513.0,513.0,513.0,512.0,512.0,512.0,512.0,512.0,512.0,512.0,512.0,512.0,512.0,512.0,512.0,511.0,511.0,511.0,511.0,511.0,493.0,493.0,493.0,499.0,499.0,499.0,499.0,499.0,499.0,499.0,499.0,499.0,499.0,499.0,499.0,504.0,504.0,504.0,504.0,504.0,488.0,488.0,488.0,489.0,489.0,489.0,489.0,489.0,489.0,489.0,489.0,489.0,489.0,489.0,489.0,492.0,492.0,492.0,492.0,492.0,513.0,504.0,492.0,511.0,493.0,488.0,512.0666666666667,496.9,489.1333333333333,3.0,16.0,4.0
0,511.0,517.0,502.0,512.0,512.0,511.0,511.0,511.0,511.0,511.0,511.0,511.0,511.0,511.0,511.0,511.0,511.0,511.0,511.0,511.0,511.0,511.0,511.0,499.0,499.0,504.0,504.0,504.0,504.0,504.0,504.0,504.0,504.0,504.0,504.0,504.0,504.0,517.0,517.0,517.0,517.0,517.0,517.0,489.0,489.0,492.0,492.0,492.0,492.0,492.0,492.0,492.0,492.0,492.0,492.0,492.0,492.0,502.0,502.0,502.0,502.0,502.0,502.0,512.0,517.0,502.0,511.0,499.0,489.0,511.4,504.6,492.8,2.0,24.0,13.0
0,513.0,523.0,509.0,511.0,511.0,511.0,511.0,511.0,511.0,511.0,511.0,511.0,511.0,511.0,511.0,511.0,511.0,511.0,513.0,513.0,513.0,513.0,513.0,504.0,504.0,504.0,517.0,517.0,517.0,517.0,517.0,517.0,517.0,517.0,517.0,517.0,517.0,517.0,523.0,523.0,523.0,523.0,523.0,492.0,492.0,492.0,502.0,502.0,502.0,502.0,502.0,502.0,502.0,502.0,502.0,502.0,502.0,502.0,509.0,509.0,509.0,509.0,509.0,513.0,523.0,509.0,511.0,504.0,492.0,511.3666666666667,512.2,498.73333333333335,2.0,24.0,20.0
0,512.0,530.0,518.0,513.0,513.0,513.0,513.0,513.0,512.0,512.0,512.0,512.0,512.0,512.0,512.0,512.0,512.0,512.0,512.0,512.0,512.0,512.0,512.0,523.0,523.0,523.0,523.0,523.0,530.0,530.0,530.0,530.0,530.0,530.0,530.0,530.0,530.0,530.0,530.0,530.0,530.0,530.0,530.0,509.0,509.0,509.0,509.0,509.0,518.0,518.0,518.0,518.0,518.0,518.0,518.0,518.0,518.0,518.0,518.0,518.0,518.0,518.0,518.0,513.0,530.0,518.0,512.0,523.0,509.0,512.1666666666666,525.5,512.3333333333334,2.0,13.0,16.0
0,511.0,536.0,527.0,512.0,512.0,512.0,512.0,512.0,512.0,512.0,512.0,512.0,512.0,512.0,512.0,512.0,511.0,511.0,511.0,511.0,511.0,511.0,511.0,530.0,530.0,530.0,530.0,530.0,530.0,530.0,530.0,530.0,530.0,530.0,530.0,530.0,536.0,536.0,536.0,536.0,536.0,536.0,536.0,518.0,518.0,518.0,518.0,518.0,518.0,518.0,518.0,518.0,518.0,518.0,518.0,518.0,527.0,527.0,527.0,527.0,527.0,527.0,527.0,512.0,536.0,527.0,511.0,530.0,518.0,511.8333333333333,530.9333333333333,519.5,2.0,13.0,18.0
0,511.0,537.0,532.0,512.0,512.0,512.0,511.0,511.0,511.0,511.0,511.0,511.0,511.0,511.0,511.0,511.0,511.0,511.0,511.0,511.0,511.0,511.0,511.0,530.0,530.0,530.0,536.0,536.0,536.0,536.0,536.0,536.0,536.0,536.0,536.0,536.0,536.0,536.0,537.0,537.0,537.0,537.0,537.0,518.0,518.0,518.0,527.0,527.0,527.0,527.0,527.0,527.0,527.0,527.0,527.0,527.0,527.0,527.0,532.0,532.0,532.0,532.0,532.0,512.0,537.0,532.0,511.0,530.0,518.0,511.43333333333334,533.5666666666667,523.9333333333333,1.0,7.0,14.0
0,508.0,533.0,538.0,511.0,511.0,511.0,511.0,511.0,511.0,511.0,511.0,511.0,511.0,511.0,508.0,508.0,508.0,508.0,508.0,508.0,508.0,508.0,508.0,536.0,537.0,537.0,537.0,537.0,537.0,537.0,537.0,537.0,537.0,537.0,533.0,533.0,533.0,533.0,533.0,533.0,533.0,533.0,533.0,527.0,532.0,532.0,532.0,532.0,532.0,532.0,532.0,532.0,532.0,532.0,538.0,538.0,538.0,538.0,538.0,538.0,538.0,538.0,538.0,511.0,537.0,538.0,508.0,533.0,527.0,510.1,535.4333333333333,531.9666666666667,3.0,4.0,11.0
0,509.0,519.0,537.0,511.0,508.0,508.0,508.0,508.0,508.0,508.0,508.0,508.0,508.0,508.0,508.0,508.0,508.0,509.0,509.0,509.0,509.0,509.0,509.0,537.0,533.0,533.0,533.0,533.0,533.0,533.0,533.0,533.0,533.0,533.0,533.0,533.0,533.0,519.0,519.0,519.0,519.0,519.0,519.0,532.0,538.0,538.0,538.0,538.0,538.0,538.0,538.0,538.0,538.0,538.0,538.0,538.0,538.0,537.0,537.0,537.0,537.0,537.0,537.0,511.0,537.0,538.0,508.0,519.0,532.0,509.26666666666665,532.1,535.4666666666667,3.0,18.0,11.0
0,508.0,514.0,537.0,508.0,508.0,508.0,508.0,509.0,509.0,509.0,509.0,509.0,509.0,509.0,509.0,509.0,509.0,509.0,509.0,509.0,508.0,508.0,508.0,533.0,533.0,533.0,533.0,519.0,519.0,519.0,519.0,519.0,519.0,519.0,519.0,519.0,519.0,519.0,519.0,519.0,514.0,514.0,514.0,538.0,538.0,538.0,538.0,537.0,537.0,537.0,537.0,537.0,537.0,537.0,537.0,537.0,537.0,537.0,537.0,537.0,537.0,537.0,537.0,509.0,533.0,538.0,508.0,514.0,537.0,508.43333333333334,525.0333333333333,537.4666666666667,1.0,19.0,1.0
0,508.0,501.0,533.0,509.0,509.0,509.0,509.0,509.0,509.0,509.0,509.0,509.0,509.0,508.0,508.0,508.0,508.0,508.0,508.0,508.0,508.0,508.0,508.0,519.0,519.0,519.0,519.0,519.0,519.0,519.0,519.0,519.0,519.0,514.0,514.0,514.0,514.0,514.0,514.0,514.0,501.0,501.0,501.0,537.0,537.0,537.0,537.0,537.0,537.0,537.0,537.0,537.0,537.0,537.0,537.0,537.0,537.0,537.0,537.0,537.0,533.0,533.0,533.0,509.0,519.0,537.0,508.0,501.0,533.0,508.43333333333334,519.3,536.8333333333334,1.0,32.0,5.0
0,508.0,498.0,523.0,508.0,508.0,508.0,508.0,508.0,508.0,508.0,508.0,508.0,508.0,508.0,508.0,508.0,508.0,508.0,508.0,508.0,508.0,508.0,508.0,514.0,514.0,514.0,514.0,514.0,514.0,501.0,501.0,501.0,501.0,501.0,501.0,501.0,498.0,498.0,498.0,498.0,498.0,498.0,498.0,537.0,537.0,537.0,537.0,537.0,537.0,533.0,533.0,533.0,533.0,533.0,533.0,533.0,523.0,523.0,523.0,523.0,523.0,523.0,523.0,508.0,514.0,537.0,508.0,498.0,523.0,508.3,508.73333333333335,532.8,1.0,21.0,14.0
0,508.0,497.0,512.0,508.0,508.0,508.0,508.0,508.0,508.0,508.0,508.0,508.0,508.0,508.0,508.0,508.0,508.0,508.0,508.0,508.0,508.0,508.0,508.0,501.0,498.0,498.0,498.0,498.0,498.0,498.0,498.0,498.0,498.0,498.0,498.0,498.0,497.0,497.0,497.0,497.0,497.0,497.0,497.0,533.0,523.0,523.0,523.0,523.0,523.0,523.0,523.0,523.0,523.0,523.0,523.0,523.0,512.0,512.0,512.0,512.0,512.0,512.0,512.0,508.0,501.0,533.0,508.0,497.0,512.0,508.0,500.6,524.6333333333333,0.0,17.0,25.0
0,507.0,497.0,498.0,508.0,508.0,508.0,508.0,508.0,508.0,508.0,508.0,508.0,508.0,508.0,508.0,508.0,508.0,508.0,507.0,507.0,507.0,507.0,507.0,498.0,498.0,498.0,497.0,497.0,497.0,497.0,497.0,497.0,497.0,497.0,497.0,497.0,497.0,497.0,497.0,497.0,497.0,497.0,497.0,523.0,523.0,523.0,512.0,512.0,512.0,512.0,512.0,512.0,512.0,512.0,512.0,512.0,512.0,512.0,498.0,498.0,498.0,498.0,498.0,508.0,498.0,523.0,507.0,497.0,498.0,507.8333333333333,497.53333333333336,514.7666666666667,1.0,4.0,35.0
0,509.0,495.0,485.0,508.0,508.0,508.0,508.0,508.0,508.0,508.0,507.0,507.0,507.0,507.0,507.0,507.0,507.0,507.0,507.0,507.0,509.0,509.0,509.0,497.0,497.0,497.0,497.0,497.0,497.0,497.0,497.0,497.0,497.0,497.0,497.0,497.0,497.0,497.0,497.0,497.0,495.0,495.0,495.0,512.0,512.0,512.0,512.0,512.0,512.0,512.0,498.0,498.0,498.0,498.0,498.0,498.0,498.0,498.0,498.0,498.0,485.0,485.0,485.0,509.0,497.0,512.0,507.0,495.0,485.0,507.76666666666665,496.96666666666664,506.46666666666664,2.0,3.0,38.0
0,509.0,494.0,484.0,507.0,507.0,507.0,507.0,509.0,509.0,509.0,509.0,509.0,509.0,509.0,509.0,509.0,509.0,509.0,509.0,509.0,509.0,509.0,509.0,497.0,497.0,497.0,497.0,495.0,495.0,495.0,495.0,495.0,495.0,495.0,495.0,494.0,494.0,494.0,494.0,494.0,494.0,494.0,494.0,498.0,498.0,498.0,498.0,485.0,485.0,485.0,485.0,485.0,485.0,485.0,485.0,484.0,484.0,484.0,484.0,484.0,484.0,484.0,484.0,509.0,497.0,498.0,507.0,494.0,484.0,508.2,495.6666666666667,492.6666666666667,2.0,3.0,28.0
0,507.0,501.0,489.0,509.0,509.0,509.0,509.0,509.0,509.0,509.0,509.0,509.0,509.0,509.0,509.0,509.0,509.0,509.0,509.0,507.0,507.0,507.0,507.0,495.0,495.0,494.0,494.0,494.0,494.0,494.0,494.0,494.0,494.0,494.0,494.0,494.0,494.0,494.0,494.0,501.0,501.0,501.0,501.0,485.0,485.0,484.0,484.0,484.0,484.0,484.0,484.0,484.0,484.0,484.0,484.0,484.0,484.0,484.0,484.0,489.0,489.0,489.0,489.0,509.0,501.0,489.0,507.0,494.0,484.0,508.46666666666664,495.6,486.8,2.0,7.0,14.0
0,509.0,503.0,491.0,509.0,509.0,509.0,509.0,509.0,509.0,509.0,507.0,507.0,507.0,507.0,507.0,507.0,507.0,507.0,507.0,509.0,509.0,509.0,509.0,494.0,494.0,494.0,494.0,494.0,494.0,494.0,501.0,501.0,501.0,501.0,501.0,501.0,501.0,501.0,501.0,503.0,503.0,503.0,503.0,484.0,484.0,484.0,484.0,484.0,484.0,484.0,489.0,489.0,489.0,489.0,489.0,489.0,489.0,489.0,489.0,491.0,491.0,491.0,491.0,509.0,503.0,491.0,507.0,494.0,484.0,508.4,497.4,486.53333333333336,2.0,9.0,7.0
0,508.0,502.0,497.0,507.0,507.0,507.0,507.0,507.0,509.0,509.0,509.0,509.0,509.0,509.0,509.0,509.0,509.0,508.0,508.0,508.0,508.0,508.0,508.0,501.0,501.0,501.0,501.0,501.0,503.0,503.0,503.0,503.0,503.0,503.0,503.0,503.0,503.0,502.0,502.0,502.0,502.0,502.0,502.0,489.0,489.0,489.0,489.0,489.0,491.0,491.0,491.0,491.0,491.0,491.0,491.0,491.0,491.0,497.0,497.0,497.0,497.0,497.0,497.0,509.0,503.0,497.0,507.0,501.0,489.0,508.26666666666665,500.46666666666664,489.8,2.0,9.0,13.0
0,509.0,494.0,507.0,509.0,509.0,509.0,509.0,508.0,508.0,508.0,508.0,508.0,508.0,508.0,508.0,508.0,508.0,509.0,509.0,509.0,509.0,509.0,509.0,503.0,503.0,503.0,503.0,502.0,502.0,502.0,502.0,502.0,502.0,502.0,502.0,502.0,502.0,494.0,494.0,494.0,494.0,494.0,494.0,491.0,491.0,491.0,491.0,497.0,497.0,497.0,497.0,497.0,497.0,497.0,497.0,497.0,497.0,507.0,507.0,507.0,507.0,507.0,507.0,509.0,503.0,507.0,508.0,494.0,491.0,508.46666666666664,500.6666666666667,496.0,2.0,9.0,18.0
0,511.0,495.0,501.0,508.0,508.0,508.0,509.0,509.0,509.0,509.0,509.0,509.0,509.0,509.0,509.0,509.0,509.0,511.0,511.0,511.0,511.0,511.0,511.0,502.0,502.0,502.0,494.0,494.0,494.0,494.0,494.0,494.0,494.0,494.0,494.0,494.0,494.0,495.0,495.0,495.0,495.0,495.0,495.0,497.0,497.0,497.0,507.0,507.0,507.0,507.0,507.0,507.0,507.0,507.0,507.0,507.0,507.0,501.0,501.0,501.0,501.0,501.0,501.0,511.0,502.0,507.0,508.0,494.0,497.0,509.06666666666666,497.76666666666665,500.8666666666667,3.0,9.0,16.0
0,512.0,493.0,496.0,509.0,509.0,509.0,509.0,509.0,511.0,511.0,511.0,511.0,511.0,511.0,511.0,511.0,511.0,511.0,511.0,511.0,512.0,512.0,512.0,494.0,494.0,494.0,494.0,494.0,495.0,495.0,495.0,495.0,495.0,495.0,495.0,495.0,495.0,495.0,495.0,495.0,493.0,493.0,493.0,507.0,507.0,507.0,507.0,507.0,501.0,501.0,501.0,501.0,501.0,501.0,501.0,501.0,501.0,501.0,501.0,501.0,496.0,496.0,496.0,512.0,495.0,507.0,509.0,493.0,496.0,509.96666666666664,495.3666666666667,502.1666666666667,4.0,9.0,11.0
0,512.0,503.0,501.0,511.0,511.0,511.0,511.0,511.0,511.0,512.0,512.0,512.0,512.0,512.0,512.0,512.0,512.0,512.0,512.0,512.0,512.0,512.0,512.0,495.0,495.0,495.0,495.0,495.0,495.0,493.0,493.0,493.0,493.0,493.0,493.0,493.0,493.0,503.0,503.0,503.0,503.0,503.0,503.0,501.0,501.0,501.0,501.0,501.0,501.0,496.0,496.0,496.0,496.0,496.0,496.0,496.0,496.0,501.0,501.0,501.0,501.0,501.0,501.0,512.0,503.0,501.0,511.0,493.0,496.0,511.2,495.93333333333334,500.46666666666664,3.0,10.0,11.0
0,511.0,503.0,503.0,512.0,512.0,512.0,512.0,512.0,512.0,512.0,512.0,512.0,512.0,512.0,512.0,512.0,512.0,512.0,511.0,511.0,511.0,511.0,511.0,493.0,493.0,503.0,503.0,503.0,503.0,503.0,503.0,503.0,503.0,503.0,503.0,503.0,503.0,503.0,503.0,503.0,503.0,503.0,503.0,496.0,496.0,501.0,501.0,501.0,501.0,501.0,501.0,501.0,501.0,501.0,501.0,501.0,501.0,501.0,503.0,503.0,503.0,503.0,503.0,512.0,503.0,503.0,511.0,493.0,496.0,511.7,499.26666666666665,500.0,1.0,10.0,7.0
0,512.0,513.0,502.0,512.0,512.0,512.0,512.0,512.0,512.0,512.0,511.0,511.0,511.0,511.0,511.0,511.0,511.0,511.0,511.0,511.0,512.0,512.0,512.0,503.0,503.0,503.0,503.0,503.0,503.0,503.0,503.0,503.0,503.0,503.0,503.0,503.0,503.0,503.0,503.0,503.0,513.0,513.0,513.0,501.0,501.0,501.0,501.0,501.0,501.0,501.0,503.0,503.0,503.0,503.0,503.0,503.0,503.0,503.0,503.0,503.0,502.0,502.0,502.0,512.0,513.0,503.0,511.0,503.0,501.0,511.6666666666667,502.6666666666667,501.1,1.0,20.0,7.0
0,510.0,525.0,518.0,511.0,511.0,511.0,511.0,511.0,511.0,511.0,512.0,512.0,512.0,512.0,512.0,512.0,512.0,512.0,512.0,510.0,510.0,510.0,510.0,503.0,503.0,503.0,503.0,503.0,503.0,503.0,513.0,513.0,513.0,513.0,513.0,513.0,513.0,513.0,513.0,525.0,525.0,525.0,525.0,503.0,503.0,503.0,503.0,503.0,503.0,503.0,502.0,502.0,502.0,502.0,502.0,502.0,502.0,502.0,502.0,518.0,518.0,518.0,518.0,512.0,525.0,518.0,510.0,503.0,502.0,511.4,508.93333333333334,504.23333333333335,2.0,22.0,17.0
0,512.0,529.0,520.0,512.0,512.0,510.0,510.0,510.0,510.0,510.0,510.0,510.0,510.0,510.0,512.0,512.0,512.0,512.0,512.0,512.0,512.0,512.0,512.0,513.0,513.0,525.0,525.0,525.0,525.0,525.0,525.0,525.0,525.0,525.0,529.0,529.0,529.0,529.0,529.0,529.0,529.0,529.0,529.0,502.0,502.0,518.0,518.0,518.0,518.0,518.0,518.0,518.0,518.0,518.0,520.0,520.0,520.0,520.0,520.0,520.0,520.0,520.0,520.0,512.0,529.0,520.0,510.0,513.0,502.0,511.3,520.4,512.3,2.0,26.0,18.0
0,511.0,532.0,517.0,512.0,512.0,512.0,512.0,512.0,512.0,512.0,512.0,512.0,512.0,512.0,512.0,512.0,512.0,511.0,511.0,511.0,511.0,511.0,511.0,529.0,529.0,529.0,529.0,529.0,529.0,529.0,529.0,529.0,529.0,529.0,529.0,529.0,529.0,532.0,532.0,532.0,532.0,532.0,532.0,520.0,520.0,520.0,520.0,520.0,520.0,520.0,520.0,520.0,520.0,520.0,520.0,520.0,520.0,517.0,517.0,517.0,517.0,517.0,517.0,512.0,532.0,520.0,511.0,529.0,517.0,511.23333333333335,527.7666666666667,518.3,2.0,19.0,18.0
0,508.0,537.0,522.0,512.0,512.0,512.0,512.0,511.0,511.0,511.0,511.0,511.0,511.0,511.0,511.0,511.0,511.0,511.0,508.0,508.0,508.0,508.0,508.0,529.0,529.0,529.0,529.0,532.0,532.0,532.0,532.0,532.0,532.0,532.0,532.0,532.0,532.0,532.0,537.0,537.0,537.0,537.0,537.0,520.0,520.0,520.0,520.0,517.0,517.0,517.0,517.0,517.0,517.0,517.0,517.0,517.0,517.0,517.0,522.0,522.0,522.0,522.0,522.0,512.0,537.0,522.0,508.0,529.0,517.0,510.96666666666664,531.4333333333333,519.2333333333333,4.0,8.0,5.0
0,509.0,528.0,520.0,511.0,511.0,511.0,511.0,511.0,511.0,508.0,508.0,508.0,508.0,508.0,508.0,508.0,508.0,508.0,508.0,509.0,509.0,509.0,509.0,532.0,532.0,532.0,532.0,532.0,532.0,537.0,537.0,537.0,537.0,537.0,537.0,537.0,537.0,537.0,537.0,528.0,528.0,528.0,528.0,517.0,517.0,517.0,517.0,517.0,517.0,522.0,522.0,522.0,522.0,522.0,522.0,522.0,522.0,522.0,522.0,520.0,520.0,520.0,520.0,511.0,537.0,522.0,508.0,528.0,517.0,509.9,532.6333333333333,519.5666666666667,4.0,9.0,5.0
0,509.0,526.0,518.0,508.0,508.0,508.0,508.0,508.0,508.0,509.0,509.0,509.0,509.0,509.0,509.0,509.0,509.0,509.0,509.0,509.0,509.0,509.0,509.0,537.0,537.0,537.0,537.0,537.0,537.0,528.0,528.0,528.0,528.0,528.0,528.0,528.0,528.0,528.0,528.0,526.0,526.0,526.0,526.0,522.0,522.0,522.0,522.0,522.0,522.0,520.0,520.0,520.0,520.0,520.0,520.0,520.0,520.0,520.0,520.0,518.0,518.0,518.0,518.0,509.0,537.0,522.0,508.0,526.0,518.0,509.06666666666666,531.5333333333333,519.8,3.0,11.0,5.0
0,510.0,517.0,523.0,509.0,509.0,509.0,509.0,509.0,509.0,509.0,509.0,509.0,509.0,509.0,509.0,509.0,510.0,510.0,510.0,510.0,510.0,510.0,510.0,528.0,528.0,528.0,528.0,528.0,526.0,526.0,526.0,526.0,526.0,526.0,526.0,526.0,517.0,517.0,517.0,517.0,517.0,517.0,517.0,520.0,520.0,520.0,520.0,520.0,518.0,518.0,518.0,518.0,518.0,518.0,518.0,518.0,523.0,523.0,523.0,523.0,523.0,523.0,523.0,510.0,528.0,523.0,509.0,517.0,518.0,509.06666666666666,526.4,520.5,2.0,20.0,5.0
0,508.0,505.0,523.0,509.0,509.0,509.0,509.0,509.0,510.0,510.0,510.0,510.0,510.0,510.0,510.0,510.0,510.0,510.0,510.0,510.0,508.0,508.0,508.0,526.0,526.0,526.0,526.0,526.0,517.0,517.0,517.0,517.0,517.0,517.0,517.0,517.0,517.0,517.0,517.0,517.0,505.0,505.0,505.0,518.0,518.0,518.0,518.0,518.0,523.0,523.0,523.0,523.0,523.0,523.0,523.0,523.0,523.0,523.0,523.0,523.0,523.0,523.0,523.0,510.0,526.0,523.0,508.0,505.0,518.0,509.3,520.7666666666667,520.9666666666667,2.0,23.0,5.0
0,507.0,505.0,509.0,510.0,510.0,510.0,510.0,510.0,510.0,510.0,508.0,508.0,508.0,508.0,508.0,508.0,508.0,508.0,508.0,508.0,507.0,507.0,507.0,517.0,517.0,517.0,517.0,517.0,517.0,517.0,505.0,505.0,505.0,505.0,505.0,505.0,505.0,505.0,505.0,505.0,505.0,505.0,505.0,523.0,523.0,523.0,523.0,523.0,523.0,523.0,523.0,523.0,523.0,523.0,523.0,523.0,523.0,523.0,523.0,523.0,509.0,509.0,509.0,510.0,517.0,523.0,507.0,505.0,509.0,508.8666666666667,513.3,520.7666666666667,3.0,21.0,14.0
0,507.0,495.0,502.0,508.0,508.0,508.0,508.0,508.0,508.0,507.0,507.0,507.0,507.0,507.0,507.0,507.0,507.0,507.0,507.0,507.0,507.0,507.0,507.0,505.0,505.0,505.0,505.0,505.0,505.0,505.0,505.0,505.0,505.0,505.0,505.0,505.0,505.0,495.0,495.0,495.0,495.0,495.0,495.0,523.0,523.0,523.0,523.0,523.0,523.0,509.0,509.0,509.0,509.0,509.0,509.0,509.0,509.0,502.0,502.0,502.0,502.0,502.0,502.0,508.0,505.0,523.0,507.0,495.0,502.0,507.93333333333334,505.4,515.0666666666667,3.0,22.0,21.0
0,508.0,497.0,483.0,507.0,507.0,507.0,507.0,507.0,507.0,507.0,507.0,507.0,507.0,507.0,507.0,507.0,507.0,507.0,508.0,508.0,508.0,508.0,508.0,505.0,495.0,495.0,495.0,495.0,495.0,495.0,495.0,495.0,495.0,495.0,495.0,495.0,495.0,495.0,497.0,497.0,497.0,497.0,497.0,509.0,502.0,502.0,502.0,502.0,502.0,502.0,502.0,502.0,502.0,502.0,502.0,502.0,502.0,502.0,483.0,483.0,483.0,483.0,483.0,508.0,505.0,509.0,507.0,495.0,483.0,507.26666666666665,499.0,502.8,1.0,10.0,40.0
0,508.0,503.0,481.0,507.0,507.0,507.0,507.0,508.0,508.0,508.0,508.0,508.0,508.0,508.0,508.0,508.0,508.0,508.0,508.0,508.0,508.0,508.0,508.0,495.0,495.0,495.0,495.0,497.0,497.0,497.0,497.0,497.0,497.0,497.0,497.0,497.0,497.0,497.0,503.0,503.0,503.0,503.0,503.0,502.0,502.0,502.0,502.0,483.0,483.0,483.0,483.0,483.0,483.0,483.0,483.0,483.0,483.0,483.0,481.0,481.0,481.0,481.0,481.0,508.0,503.0,502.0,507.0,495.0,481.0,507.53333333333336,497.06666666666666,491.53333333333336,1.0,8.0,21.0
0,509.0,496.0,478.0,508.0,508.0,508.0,508.0,508.0,508.0,508.0,508.0,508.0,508.0,508.0,508.0,508.0,508.0,509.0,509.0,509.0,509.0,509.0,509.0,497.0,497.0,497.0,497.0,503.0,503.0,503.0,503.0,503.0,503.0,503.0,503.0,503.0,503.0,496.0,496.0,496.0,496.0,496.0,496.0,483.0,483.0,483.0,483.0,481.0,481.0,481.0,481.0,481.0,481.0,481.0,481.0,481.0,481.0,478.0,478.0,478.0,478.0,478.0,478.0,509.0,503.0,483.0,508.0,496.0,478.0,508.1,498.6,483.23333333333335,2.0,8.0,24.0
0,506.0,495.0,473.0,508.0,508.0,508.0,508.0,509.0,509.0,509.0,509.0,509.0,509.0,509.0,509.0,509.0,506.0,506.0,506.0,506.0,506.0,506.0,506.0,503.0,503.0,503.0,503.0,496.0,496.0,496.0,496.0,496.0,496.0,496.0,496.0,496.0,495.0,495.0,495.0,495.0,495.0,495.0,495.0,481.0,481.0,481.0,481.0,478.0,478.0,478.0,478.0,478.0,478.0,478.0,478.0,478.0,473.0,473.0,473.0,473.0,473.0,473.0,473.0,509.0,503.0,481.0,506.0,495.0,473.0,507.8333333333333,498.23333333333335,478.5,3.0,8.0,10.0
0,507.0,498.0,464.0,509.0,509.0,509.0,509.0,506.0,506.0,506.0,506.0,506.0,506.0,506.0,506.0,506.0,506.0,506.0,507.0,507.0,507.0,507.0,507.0,496.0,496.0,496.0,496.0,495.0,495.0,495.0,495.0,495.0,495.0,495.0,495.0,495.0,495.0,495.0,498.0,498.0,498.0,498.0,498.0,478.0,478.0,478.0,478.0,473.0,473.0,473.0,473.0,473.0,473.0,473.0,473.0,473.0,473.0,473.0,464.0,464.0,464.0,464.0,464.0,509.0,498.0,478.0,506.0,495.0,464.0,507.4,497.1333333333333,474.3333333333333,3.0,8.0,17.0
0,508.0,498.0,469.0,506.0,506.0,506.0,507.0,507.0,507.0,507.0,507.0,507.0,507.0,507.0,507.0,507.0,507.0,508.0,508.0,508.0,508.0,508.0,508.0,495.0,495.0,495.0,498.0,498.0,498.0,498.0,498.0,498.0,498.0,498.0,498.0,498.0,498.0,498.0,498.0,498.0,498.0,498.0,498.0,473.0,473.0,473.0,464.0,464.0,464.0,464.0,464.0,464.0,464.0,464.0,464.0,464.0,464.0,469.0,469.0,469.0,469.0,469.0,469.0,508.0,498.0,473.0,506.0,495.0,464.0,506.96666666666664,496.76666666666665,469.23333333333335,3.0,3.0,14.0
0,508.0,495.0,477.0,507.0,507.0,507.0,507.0,507.0,508.0,508.0,508.0,508.0,508.0,508.0,508.0,508.0,508.0,508.0,508.0,508.0,508.0,508.0,508.0,498.0,498.0,498.0,498.0,498.0,498.0,498.0,498.0,498.0,498.0,498.0,498.0,498.0,498.0,498.0,498.0,498.0,495.0,495.0,495.0,464.0,464.0,464.0,464.0,464.0,469.0,469.0,469.0,469.0,469.0,469.0,469.0,469.0,469.0,469.0,469.0,469.0,477.0,477.0,477.0,508.0,498.0,477.0,507.0,495.0,464.0,507.3666666666667,497.3,468.5,2.0,3.0,13.0
0,510.0,493.0,486.0,508.0,508.0,508.0,508.0,508.0,508.0,508.0,508.0,508.0,508.0,508.0,510.0,510.0,510.0,510.0,510.0,510.0,510.0,510.0,510.0,498.0,498.0,498.0,498.0,495.0,495.0,495.0,495.0,495.0,495.0,495.0,493.0,493.0,493.0,493.0,493.0,493.0,493.0,493.0,493.0,469.0,469.0,469.0,469.0,477.0,477.0,477.0,477.0,477.0,477.0,477.0,486.0,486.0,486.0,486.0,486.0,486.0,486.0,486.0,486.0,510.0,498.0,486.0,508.0,493.0,469.0,508.53333333333336,495.8,475.6333333333333,3.0,5.0,22.0
0,510.0,499.0,503.0,510.0,510.0,510.0,510.0,510.0,510.0,510.0,510.0,510.0,510.0,510.0,510.0,510.0,510.0,510.0,510.0,510.0,510.0,510.0,510.0,493.0,493.0,493.0,493.0,493.0,493.0,493.0,493.0,493.0,496.0,496.0,496.0,499.0,499.0,499.0,499.0,499.0,499.0,499.0,499.0,486.0,486.0,486.0,486.0,486.0,486.0,486.0,486.0,486.0,493.0,493.0,493.0,503.0,503.0,503.0,503.0,503.0,503.0,503.0,503.0,510.0,499.0,503.0,510.0,493.0,486.0,509.4,495.5,487.43333333333334,2.0,6.0,34.0
0,511.0,504.0,516.0,510.0,510.0,510.0,510.0,510.0,510.0,510.0,510.0,510.0,510.0,510.0,510.0,511.0,511.0,511.0,511.0,511.0,511.0,511.0,511.0,499.0,499.0,499.0,499.0,499.0,499.0,499.0,499.0,499.0,499.0,499.0,499.0,504.0,504.0,504.0,504.0,504.0,504.0,504.0,504.0,503.0,503.0,503.0,503.0,503.0,503.0,503.0,503.0,503.0,503.0,503.0,503.0,516.0,516.0,516.0,516.0,516.0,516.0,516.0,516.0,511.0,504.0,516.0,510.0,499.0,503.0,510.26666666666665,498.8333333333333,502.06666666666666,1.0,11.0,30.0
0,511.0,518.0,528.0,510.0,511.0,511.0,511.0,511.0,511.0,511.0,511.0,511.0,511.0,511.0,511.0,511.0,511.0,511.0,511.0,511.0,511.0,511.0,511.0,499.0,504.0,504.0,504.0,504.0,504.0,504.0,504.0,504.0,504.0,504.0,504.0,504.0,504.0,518.0,518.0,518.0,518.0,518.0,518.0,503.0,516.0,516.0,516.0,516.0,516.0,516.0,516.0,516.0,516.0,516.0,516.0,516.0,516.0,528.0,528.0,528.0,528.0,528.0,528.0,511.0,518.0,528.0,510.0,499.0,503.0,510.6333333333333,504.96666666666664,513.6333333333333,1.0,19.0,25.0
0,509.0,524.0,537.0,511.0,511.0,511.0,511.0,511.0,511.0,511.0,511.0,511.0,511.0,511.0,509.0,509.0,509.0,509.0,509.0,509.0,509.0,509.0,509.0,504.0,504.0,504.0,518.0,518.0,518.0,518.0,518.0,518.0,518.0,518.0,524.0,524.0,524.0,524.0,524.0,524.0,524.0,524.0,524.0,516.0,516.0,516.0,528.0,528.0,528.0,528.0,528.0,528.0,528.0,528.0,537.0,537.0,537.0,537.0,537.0,537.0,537.0,537.0,537.0,511.0,524.0,537.0,509.0,504.0,516.0,510.43333333333334,512.9,524.3666666666667,2.0,25.0,34.0
0,510.0,536.0,549.0,511.0,509.0,509.0,509.0,509.0,509.0,509.0,509.0,509.0,509.0,509.0,509.0,509.0,509.0,509.0,510.0,510.0,510.0,510.0,510.0,518.0,524.0,524.0,524.0,524.0,524.0,524.0,524.0,524.0,524.0,524.0,524.0,524.0,524.0,524.0,536.0,536.0,536.0,536.0,536.0,528.0,537.0,537.0,537.0,537.0,537.0,537.0,537.0,537.0,537.0,537.0,537.0,537.0,537.0,537.0,549.0,549.0,549.0,549.0,549.0,511.0,536.0,549.0,509.0,518.0,528.0,509.9,522.4,534.5,2.0,32.0,33.0
0,509.0,537.0,556.0,509.0,509.0,510.0,510.0,510.0,510.0,510.0,510.0,510.0,510.0,510.0,509.0,509.0,509.0,509.0,509.0,509.0,509.0,509.0,509.0,524.0,524.0,536.0,536.0,536.0,536.0,536.0,536.0,536.0,536.0,536.0,537.0,537.0,537.0,537.0,537.0,537.0,537.0,537.0,537.0,537.0,537.0,549.0,549.0,549.0,549.0,549.0,549.0,549.0,549.0,549.0,556.0,556.0,556.0,556.0,556.0,556.0,556.0,556.0,556.0,510.0,537.0,556.0,509.0,524.0,537.0,509.3,531.5,546.3,1.0,13.0,19.0
0,510.0,536.0,556.0,509.0,509.0,509.0,509.0,509.0,509.0,509.0,509.0,509.0,509.0,509.0,510.0,510.0,510.0,510.0,510.0,510.0,510.0,510.0,510.0,537.0,537.0,537.0,537.0,537.0,537.0,537.0,537.0,537.0,537.0,537.0,536.0,536.0,536.0,536.0,536.0,536.0,536.0,536.0,536.0,556.0,556.0,556.0,556.0,556.0,556.0,556.0,556.0,556.0,556.0,556.0,556.0,556.0,556.0,556.0,556.0,556.0,556.0,556.0,556.0,510.0,537.0,556.0,509.0,536.0,556.0,509.53333333333336,536.4666666666667,554.3666666666667,1.0,1.0,7.0
0,508.0,530.0,556.0,509.0,509.0,510.0,510.0,510.0,510.0,510.0,510.0,510.0,510.0,510.0,510.0,510.0,510.0,510.0,510.0,510.0,508.0,508.0,508.0,537.0,537.0,536.0,536.0,536.0,536.0,536.0,536.0,536.0,536.0,536.0,536.0,536.0,536.0,536.0,536.0,536.0,530.0,530.0,530.0,556.0,556.0,556.0,556.0,556.0,556.0,556.0,556.0,556.0,556.0,556.0,556.0,556.0,556.0,556.0,556.0,556.0,556.0,556.0,556.0,510.0,537.0,556.0,508.0,530.0,556.0,509.4,535.8,556.0,2.0,7.0,0.0
0,508.0,521.0,546.0,510.0,510.0,510.0,510.0,510.0,508.0,508.0,508.0,508.0,508.0,508.0,508.0,508.0,508.0,508.0,508.0,508.0,508.0,508.0,508.0,536.0,536.0,536.0,536.0,536.0,530.0,530.0,530.0,530.0,530.0,530.0,530.0,530.0,521.0,521.0,521.0,521.0,521.0,521.0,521.0,556.0,556.0,556.0,556.0,556.0,556.0,556.0,556.0,556.0,556.0,556.0,556.0,556.0,546.0,546.0,546.0,546.0,546.0,546.0,546.0,510.0,536.0,556.0,508.0,521.0,546.0,509.0,530.9,553.6666666666666,2.0,15.0,10.0
0,509.0,515.0,547.0,508.0,508.0,508.0,508.0,508.0,508.0,508.0,508.0,508.0,508.0,508.0,508.0,509.0,509.0,509.0,509.0,509.0,509.0,509.0,509.0,530.0,521.0,521.0,521.0,521.0,521.0,521.0,521.0,521.0,521.0,521.0,521.0,515.0,515.0,515.0,515.0,515.0,515.0,515.0,515.0,556.0,546.0,546.0,546.0,546.0,546.0,546.0,546.0,546.0,546.0,546.0,546.0,547.0,547.0,547.0,547.0,547.0,547.0,547.0,547.0,509.0,530.0,556.0,508.0,515.0,546.0,508.43333333333334,523.5,549.9,2.0,21.0,10.0
0,507.0,508.0,544.0,509.0,509.0,509.0,509.0,509.0,509.0,509.0,509.0,509.0,509.0,509.0,507.0,507.0,507.0,507.0,507.0,507.0,507.0,507.0,507.0,515.0,515.0,515.0,515.0,515.0,515.0,515.0,515.0,515.0,515.0,515.0,508.0,508.0,508.0,508.0,508.0,508.0,508.0,508.0,508.0,547.0,547.0,547.0,547.0,547.0,547.0,547.0,547.0,547.0,547.0,547.0,544.0,544.0,544.0,544.0,544.0,544.0,544.0,544.0,544.0,509.0,515.0,547.0,507.0,508.0,544.0,508.06666666666666,514.9,545.7666666666667,2.0,13.0,3.0
0,509.0,500.0,536.0,507.0,507.0,507.0,507.0,507.0,507.0,507.0,507.0,507.0,507.0,507.0,507.0,507.0,509.0,509.0,509.0,509.0,509.0,509.0,509.0,508.0,508.0,508.0,508.0,508.0,508.0,508.0,508.0,508.0,508.0,508.0,508.0,508.0,500.0,500.0,500.0,500.0,500.0,500.0,500.0,544.0,544.0,544.0,544.0,544.0,544.0,544.0,544.0,544.0,544.0,544.0,544.0,544.0,536.0,536.0,536.0,536.0,536.0,536.0,536.0,509.0,508.0,544.0,507.0,500.0,536.0,508.0,508.0,542.9333333333333,2.0,15.0,11.0
0,507.0,493.0,530.0,507.0,507.0,507.0,507.0,507.0,507.0,509.0,509.0,509.0,509.0,509.0,509.0,509.0,509.0,509.0,509.0,507.0,507.0,507.0,507.0,508.0,508.0,508.0,508.0,508.0,508.0,500.0,500.0,500.0,500.0,500.0,500.0,500.0,500.0,500.0,500.0,493.0,493.0,493.0,493.0,544.0,544.0,544.0,544.0,544.0,544.0,536.0,536.0,536.0,536.0,536.0,536.0,536.0,536.0,536.0,536.0,530.0,530.0,530.0,530.0,509.0,508.0,544.0,507.0,493.0,530.0,507.73333333333335,503.56666666666666,539.5666666666667,2.0,22.0,17.0
0,510.0,494.0,521.0,509.0,509.0,509.0,509.0,509.0,509.0,507.0,507.0,507.0,507.0,507.0,507.0,507.0,507.0,510.0,510.0,510.0,510.0,510.0,510.0,500.0,500.0,500.0,500.0,500.0,500.0,493.0,493.0,493.0,493.0,493.0,493.0,493.0,493.0,494.0,494.0,494.0,494.0,494.0,494.0,536.0,536.0,536.0,536.0,536.0,536.0,530.0,530.0,530.0,530.0,530.0,530.0,530.0,530.0,521.0,521.0,521.0,521.0,521.0,521.0,510.0,500.0,536.0,507.0,493.0,521.0,508.26666666666665,498.53333333333336,533.0,3.0,15.0,23.0
0,509.0,500.0,507.0,507.0,507.0,507.0,507.0,510.0,510.0,510.0,510.0,510.0,510.0,510.0,510.0,510.0,510.0,510.0,509.0,509.0,509.0,509.0,509.0,493.0,493.0,493.0,493.0,494.0,494.0,494.0,494.0,494.0,494.0,494.0,494.0,494.0,494.0,494.0,500.0,500.0,500.0,500.0,500.0,530.0,530.0,530.0,530.0,521.0,521.0,521.0,521.0,521.0,521.0,521.0,521.0,521.0,521.0,521.0,507.0,507.0,507.0,507.0,507.0,510.0,500.0,530.0,507.0,493.0,507.0,508.8333333333333,495.93333333333334,524.0666666666667,3.0,7.0,29.0
0,508.0,499.0,503.0,510.0,510.0,510.0,510.0,509.0,509.0,509.0,509.0,509.0,509.0,509.0,509.0,509.0,509.0,509.0,508.0,508.0,508.0,508.0,508.0,494.0,494.0,494.0,494.0,500.0,500.0,500.0,500.0,500.0,500.0,500.0,500.0,500.0,500.0,500.0,499.0,499.0,499.0,499.0,499.0,521.0,521.0,521.0,521.0,507.0,507.0,507.0,507.0,507.0,507.0,507.0,507.0,507.0,507.0,507.0,503.0,503.0,503.0,503.0,503.0,510.0,500.0,521.0,508.0,494.0,503.0,509.0,496.93333333333334,513.7666666666667,3.0,7.0,27.0
0,509.0,498.0,495.0,509.0,509.0,509.0,509.0,508.0,508.0,508.0,508.0,508.0,508.0,508.0,508.0,508.0,508.0,509.0,509.0,509.0,509.0,509.0,509.0,500.0,500.0,500.0,500.0,499.0,499.0,499.0,499.0,499.0,499.0,499.0,499.0,499.0,499.0,498.0,498.0,498.0,498.0,498.0,498.0,507.0,507.0,507.0,507.0,503.0,503.0,503.0,503.0,503.0,503.0,503.0,503.0,503.0,503.0,495.0,495.0,495.0,495.0,495.0,495.0,509.0,500.0,507.0,508.0,498.0,495.0,508.76666666666665,498.6666666666667,504.6666666666667,2.0,6.0,26.0
0,506.0,499.0,489.0,508.0,508.0,508.0,509.0,509.0,509.0,509.0,509.0,509.0,509.0,509.0,509.0,506.0,506.0,506.0,506.0,506.0,506.0,506.0,506.0,499.0,499.0,499.0,498.0,498.0,498.0,498.0,498.0,498.0,498.0,498.0,498.0,499.0,499.0,499.0,499.0,499.0,499.0,499.0,499.0,503.0,503.0,503.0,495.0,495.0,495.0,495.0,495.0,495.0,495.0,495.0,495.0,489.0,489.0,489.0,489.0,489.0,489.0,489.0,489.0,509.0,499.0,503.0,506.0,498.0,489.0,507.96666666666664,498.8333333333333,497.8666666666667,3.0,2.0,18.0
0,508.0,494.0,488.0,506.0,506.0,506.0,506.0,506.0,506.0,506.0,506.0,506.0,506.0,506.0,508.0,508.0,508.0,508.0,508.0,508.0,508.0,508.0,508.0,499.0,499.0,499.0,499.0,499.0,499.0,499.0,499.0,499.0,499.0,499.0,494.0,494.0,494.0,494.0,494.0,494.0,494.0,494.0,494.0,489.0,489.0,489.0,489.0,489.0,489.0,489.0,489.0,489.0,489.0,489.0,488.0,488.0,488.0,488.0,488.0,488.0,488.0,488.0,488.0,508.0,499.0,489.0,506.0,494.0,488.0,507.3,497.26666666666665,490.1,3.0,5.0,7.0
0,509.0,503.0,489.0,508.0,508.0,508.0,508.0,508.0,508.0,508.0,508.0,508.0,508.0,508.0,508.0,508.0,509.0,509.0,509.0,509.0,509.0,509.0,509.0,494.0,494.0,494.0,494.0,494.0,494.0,494.0,494.0,494.0,494.0,494.0,494.0,494.0,503.0,503.0,503.0,503.0,503.0,503.0,503.0,488.0,488.0,488.0,488.0,488.0,488.0,488.0,488.0,488.0,488.0,488.0,488.0,488.0,489.0,489.0,489.0,489.0,489.0,489.0,489.0,509.0,503.0,489.0,508.0,494.0,488.0,507.8333333333333,497.1,488.43333333333334,3.0,9.0,1.0
0,511.0,491.0,483.0,509.0,509.0,509.0,509.0,509.0,509.0,509.0,509.0,509.0,509.0,509.0,511.0,511.0,511.0,511.0,511.0,511.0,511.0,511.0,511.0,503.0,503.0,503.0,503.0,503.0,503.0,503.0,503.0,503.0,503.0,503.0,491.0,491.0,491.0,491.0,491.0,491.0,491.0,491.0,491.0,489.0,489.0,489.0,489.0,489.0,489.0,489.0,489.0,489.0,489.0,489.0,483.0,483.0,483.0,483.0,483.0,483.0,483.0,483.0,483.0,511.0,503.0,489.0,509.0,491.0,483.0,509.3,496.7,486.9,3.0,12.0,6.0
0,510.0,493.0,482.0,511.0,511.0,511.0,511.0,511.0,511.0,511.0,511.0,511.0,511.0,511.0,511.0,511.0,510.0,510.0,510.0,510.0,510.0,510.0,510.0,491.0,491.0,491.0,491.0,491.0,491.0,491.0,491.0,491.0,491.0,491.0,491.0,491.0,493.0,493.0,493.0,493.0,493.0,493.0,493.0,483.0,483.0,483.0,483.0,483.0,483.0,483.0,483.0,483.0,483.0,483.0,483.0,483.0,482.0,482.0,482.0,482.0,482.0,482.0,482.0,511.0,493.0,483.0,510.0,491.0,482.0,510.1666666666667,495.06666666666666,484.56666666666666,2.0,12.0,7.0
0,513.0,488.0,482.0,511.0,511.0,511.0,510.0,510.0,510.0,510.0,510.0,510.0,510.0,510.0,510.0,510.0,510.0,510.0,513.0,513.0,513.0,513.0,513.0,491.0,491.0,491.0,493.0,493.0,493.0,493.0,493.0,493.0,493.0,493.0,493.0,493.0,493.0,493.0,488.0,488.0,488.0,488.0,488.0,483.0,483.0,483.0,482.0,482.0,482.0,482.0,482.0,482.0,482.0,482.0,482.0,482.0,482.0,482.0,482.0,482.0,482.0,482.0,482.0,513.0,493.0,483.0,510.0,488.0,482.0,510.93333333333334,491.3,482.43333333333334,3.0,5.0,1.0
0,507.0,497.0,452.0,510.0,510.0,510.0,510.0,513.0,513.0,513.0,513.0,513.0,513.0,513.0,513.0,513.0,513.0,513.0,507.0,507.0,507.0,507.0,507.0,493.0,493.0,493.0,493.0,488.0,488.0,488.0,488.0,488.0,488.0,488.0,488.0,488.0,488.0,488.0,497.0,497.0,497.0,497.0,497.0,482.0,482.0,482.0,482.0,482.0,482.0,482.0,482.0,482.0,482.0,482.0,482.0,482.0,482.0,482.0,452.0,452.0,452.0,452.0,452.0,513.0,497.0,482.0,507.0,488.0,452.0,510.6666666666667,491.7,477.06666666666666,6.0,9.0,31.0
0,507.0,518.0,492.0,513.0,513.0,513.0,513.0,513.0,507.0,507.0,507.0,507.0,507.0,507.0,507.0,507.0,507.0,507.0,507.0,507.0,507.0,507.0,507.0,488.0,488.0,488.0,488.0,488.0,497.0,497.0,497.0,497.0,497.0,497.0,497.0,497.0,518.0,518.0,518.0,518.0,518.0,518.0,518.0,482.0,482.0,482.0,482.0,482.0,452.0,452.0,452.0,452.0,452.0,452.0,452.0,452.0,492.0,492.0,492.0,492.0,492.0,492.0,492.0,513.0,518.0,492.0,507.0,488.0,452.0,509.6,498.06666666666666,476.3333333333333,6.0,30.0,40.0
0,511.0,517.0,573.0,507.0,507.0,507.0,507.0,507.0,507.0,507.0,507.0,507.0,507.0,507.0,507.0,507.0,511.0,511.0,511.0,511.0,511.0,511.0,511.0,497.0,497.0,518.0,518.0,518.0,518.0,518.0,518.0,518.0,518.0,518.0,518.0,518.0,517.0,517.0,517.0,517.0,517.0,517.0,517.0,452.0,452.0,492.0,492.0,492.0,492.0,492.0,492.0,492.0,492.0,492.0,492.0,492.0,573.0,573.0,573.0,573.0,573.0,573.0,573.0,511.0,518.0,573.0,507.0,497.0,452.0,508.73333333333335,508.1666666666667,498.9,6.0,30.0,121.0
0,504.0,532.0,526.0,511.0,511.0,511.0,511.0,511.0,511.0,511.0,511.0,511.0,511.0,511.0,504.0,504.0,504.0,504.0,504.0,504.0,504.0,504.0,504.0,517.0,517.0,517.0,517.0,517.0,517.0,517.0,517.0,517.0,517.0,517.0,532.0,532.0,532.0,532.0,532.0,532.0,532.0,532.0,532.0,573.0,573.0,573.0,573.0,573.0,573.0,573.0,573.0,573.0,573.0,573.0,526.0,526.0,526.0,526.0,526.0,526.0,526.0,526.0,526.0,511.0,532.0,573.0,504.0,517.0,526.0,507.7,521.8,534.6,7.0,15.0,81.0
0,506.0,523.0,496.0,504.0,504.0,504.0,504.0,504.0,504.0,504.0,504.0,504.0,504.0,504.0,504.0,504.0,504.0,506.0,506.0,506.0,506.0,506.0,506.0,532.0,532.0,532.0,532.0,532.0,532.0,532.0,532.0,532.0,532.0,532.0,532.0,532.0,532.0,523.0,523.0,523.0,523.0,523.0,523.0,526.0,526.0,526.0,526.0,526.0,526.0,526.0,526.0,526.0,526.0,526.0,526.0,526.0,526.0,496.0,496.0,496.0,496.0,496.0,496.0,506.0,532.0,526.0,504.0,523.0,496.0,506.5,525.7,534.1,7.0,15.0,77.0
0,605.0,557.0,582.0,504.0,504.0,504.0,504.0,504.0,504.0,506.0,506.0,506.0,506.0,506.0,506.0,506.0,506.0,506.0,506.0,605.0,605.0,605.0,605.0,532.0,532.0,532.0,532.0,532.0,532.0,523.0,523.0,523.0,523.0,523.0,523.0,523.0,523.0,523.0,523.0,557.0,557.0,557.0,557.0,526.0,526.0,526.0,526.0,526.0,526.0,496.0,496.0,496.0,496.0,496.0,496.0,496.0,496.0,496.0,496.0,582.0,582.0,582.0,582.0,605.0,557.0,582.0,504.0,523.0,496.0,518.3666666666667,531.8333333333334,525.0333333333333,101.0,40.0,86.0
0,514.0,538.0,523.0,506.0,506.0,506.0,605.0,605.0,605.0,605.0,605.0,605.0,605.0,605.0,514.0,514.0,514.0,514.0,514.0,514.0,514.0,514.0,514.0,523.0,523.0,523.0,557.0,557.0,557.0,557.0,557.0,557.0,557.0,557.0,538.0,538.0,538.0,538.0,538.0,538.0,538.0,538.0,538.0,496.0,496.0,496.0,582.0,582.0,582.0,582.0,582.0,582.0,582.0,582.0,523.0,523.0,523.0,523.0,523.0,523.0,523.0,523.0,523.0,605.0,557.0,582.0,506.0,523.0,496.0,534.6,537.4666666666667,530.0333333333333,101.0,34.0,86.0
0,532.0,524.0,522.0,514.0,514.0,514.0,514.0,514.0,514.0,514.0,514.0,514.0,514.0,514.0,514.0,514.0,514.0,514.0,514.0,532.0,532.0,532.0,532.0,538.0,538.0,538.0,538.0,538.0,538.0,538.0,538.0,538.0,538.0,538.0,538.0,538.0,538.0,538.0,538.0,524.0,524.0,524.0,524.0,523.0,523.0,523.0,523.0,523.0,523.0,523.0,523.0,523.0,523.0,523.0,523.0,523.0,523.0,523.0,523.0,522.0,522.0,522.0,522.0,532.0,538.0,523.0,514.0,524.0,522.0,540.1333333333333,540.2,536.8,99.0,34.0,86.0
0,505.0,535.0,387.0,514.0,514.0,514.0,514.0,514.0,532.0,532.0,532.0,532.0,532.0,532.0,532.0,532.0,532.0,505.0,505.0,505.0,505.0,505.0,505.0,538.0,538.0,538.0,538.0,538.0,524.0,524.0,524.0,524.0,524.0,524.0,524.0,524.0,524.0,535.0,535.0,535.0,535.0,535.0,535.0,523.0,523.0,523.0,523.0,523.0,522.0,522.0,522.0,522.0,522.0,522.0,522.0,522.0,522.0,387.0,387.0,387.0,387.0,387.0,387.0,532.0,538.0,523.0,505.0,524.0,387.0,517.6,533.2,495.5,27.0,14.0,136.0
0,573.0,516.0,468.0,532.0,532.0,532.0,532.0,532.0,505.0,505.0,505.0,505.0,505.0,505.0,505.0,505.0,505.0,505.0,573.0,573.0,573.0,573.0,573.0,524.0,524.0,524.0,524.0,524.0,535.0,535.0,535.0,535.0,535.0,535.0,535.0,535.0,535.0,535.0,516.0,516.0,516.0,516.0,516.0,522.0,522.0,522.0,522.0,522.0,387.0,387.0,387.0,387.0,387.0,387.0,387.0,387.0,387.0,387.0,468.0,468.0,468.0,468.0,468.0,573.0,535.0,522.0,505.0,516.0,387.0,526.2333333333333,529.1333333333333,468.2,68.0,22.0,136.0
0,535.0,539.0,417.0,505.0,505.0,505.0,505.0,505.0,573.0,573.0,573.0,573.0,573.0,573.0,573.0,573.0,573.0,573.0,573.0,535.0,535.0,535.0,535.0,535.0,535.0,535.0,535.0,535.0,516.0,516.0,516.0,516.0,516.0,516.0,516.0,516.0,516.0,516.0,516.0,539.0,539.0,539.0,539.0,387.0,387.0,387.0,387.0,387.0,468.0,468.0,468.0,468.0,468.0,468.0,468.0,468.0,468.0,468.0,468.0,417.0,417.0,417.0,417.0,573.0,539.0,468.0,505.0,516.0,387.0,538.4333333333333,526.7333333333333,443.2,68.0,23.0,135.0
0,500.0,535.0,557.0,573.0,573.0,573.0,573.0,535.0,535.0,535.0,535.0,535.0,535.0,535.0,535.0,535.0,535.0,535.0,535.0,500.0,500.0,500.0,500.0,516.0,516.0,516.0,516.0,539.0,539.0,539.0,539.0,539.0,539.0,539.0,539.0,539.0,539.0,539.0,539.0,535.0,535.0,535.0,535.0,468.0,468.0,468.0,468.0,417.0,417.0,417.0,417.0,417.0,417.0,417.0,417.0,417.0,417.0,417.0,417.0,557.0,557.0,557.0,557.0,573.0,539.0,557.0,500.0,516.0,417.0,541.2666666666667,529.6333333333333,451.3666666666667,73.0,23.0,170.0
0,500.0,499.0,560.0,535.0,535.0,535.0,535.0,535.0,535.0,500.0,500.0,500.0,500.0,500.0,500.0,500.0,500.0,500.0,500.0,500.0,500.0,500.0,500.0,539.0,539.0,539.0,539.0,539.0,539.0,535.0,535.0,535.0,535.0,535.0,535.0,535.0,535.0,499.0,499.0,499.0,499.0,499.0,499.0,417.0,417.0,417.0,417.0,417.0,417.0,557.0,557.0,557.0,557.0,557.0,557.0,557.0,557.0,560.0,560.0,560.0,560.0,560.0,560.0,535.0,539.0,560.0,500.0,499.0,417.0,523.7333333333333,526.8666666666667,489.73333333333335,73.0,40.0,143.0
0,500.0,524.0,647.0,500.0,500.0,500.0,500.0,500.0,500.0,500.0,500.0,500.0,500.0,500.0,500.0,500.0,500.0,500.0,500.0,500.0,500.0,500.0,500.0,499.0,499.0,499.0,499.0,499.0,499.0,499.0,499.0,499.0,499.0,499.0,499.0,524.0,524.0,524.0,524.0,524.0,524.0,524.0,524.0,560.0,560.0,560.0,560.0,560.0,560.0,560.0,560.0,560.0,560.0,560.0,560.0,647.0,647.0,647.0,647.0,647.0,647.0,647.0,647.0,500.0,524.0,647.0,500.0,499.0,560.0,502.3333333333333,517.9333333333333,572.8666666666667,35.0,40.0,230.0
0,524.0,484.0,559.0,500.0,500.0,500.0,500.0,500.0,500.0,500.0,500.0,500.0,500.0,500.0,500.0,500.0,500.0,524.0,524.0,524.0,524.0,524.0,524.0,499.0,524.0,524.0,524.0,524.0,524.0,524.0,524.0,524.0,524.0,524.0,524.0,524.0,524.0,484.0,484.0,484.0,484.0,484.0,484.0,560.0,647.0,647.0,647.0,647.0,647.0,647.0,647.0,647.0,647.0,647.0,647.0,647.0,647.0,559.0,559.0,559.0,559.0,559.0,559.0,524.0,524.0,647.0,500.0,484.0,559.0,504.8,506.8333333333333,597.5,24.0,40.0,88.0
0,467.0,528.0,515.0,500.0,500.0,524.0,524.0,524.0,524.0,524.0,524.0,524.0,524.0,467.0,467.0,467.0,467.0,467.0,467.0,467.0,467.0,467.0,467.0,524.0,524.0,484.0,484.0,484.0,484.0,484.0,484.0,484.0,484.0,528.0,528.0,528.0,528.0,528.0,528.0,528.0,528.0,528.0,528.0,647.0,647.0,559.0,559.0,559.0,559.0,559.0,559.0,559.0,559.0,515.0,515.0,515.0,515.0,515.0,515.0,515.0,515.0,515.0,515.0,524.0,528.0,647.0,467.0,484.0,515.0,496.5,514.5333333333333,583.9333333333333,57.0,44.0,132.0
0,479.0,510.0,399.0,467.0,467.0,467.0,467.0,467.0,467.0,467.0,467.0,467.0,467.0,467.0,467.0,467.0,467.0,479.0,479.0,479.0,479.0,479.0,479.0,528.0,528.0,528.0,528.0,528.0,528.0,528.0,528.0,528.0,528.0,528.0,528.0,528.0,528.0,510.0,510.0,510.0,510.0,510.0,510.0,515.0,515.0,515.0,515.0,515.0,515.0,515.0,515.0,515.0,515.0,515.0,515.0,515.0,515.0,399.0,399.0,399.0,399.0,399.0,399.0,479.0,528.0,515.0,467.0,510.0,399.0,484.2,513.2666666666667,507.4,57.0,44.0,160.0
0,489.0,623.0,115.0,467.0,467.0,467.0,467.0,479.0,479.0,479.0,479.0,479.0,479.0,479.0,479.0,479.0,479.0,479.0,489.0,489.0,489.0,489.0,489.0,528.0,528.0,528.0,528.0,510.0,510.0,510.0,510.0,510.0,510.0,510.0,510.0,510.0,510.0,510.0,623.0,623.0,623.0,623.0,623.0,515.0,515.0,515.0,515.0,399.0,399.0,399.0,399.0,399.0,399.0,399.0,399.0,399.0,399.0,399.0,115.0,115.0,115.0,115.0,115.0,489.0,623.0,515.0,467.0,510.0,115.0,475.06666666666666,537.2333333333333,405.8,22.0,113.0,400.0
0,528.0,517.0,1.0,479.0,489.0,489.0,489.0,489.0,489.0,489.0,489.0,489.0,489.0,489.0,489.0,528.0,528.0,528.0,528.0,528.0,528.0,528.0,528.0,510.0,623.0,623.0,623.0,623.0,623.0,623.0,623.0,623.0,623.0,623.0,623.0,517.0,517.0,517.0,517.0,517.0,517.0,517.0,517.0,399.0,115.0,115.0,115.0,115.0,115.0,115.0,115.0,115.0,115.0,115.0,115.0,1.0,1.0,1.0,1.0,1.0,1.0,1.0,1.0,528.0,623.0,399.0,479.0,510.0,1.0,495.73333333333335,553.3,188.73333333333332,49.0,113.0,398.0
0,532.0,453.0,3.0,528.0,528.0,528.0,528.0,528.0,528.0,528.0,528.0,528.0,528.0,528.0,532.0,532.0,532.0,532.0,532.0,532.0,532.0,532.0,532.0,517.0,517.0,517.0,517.0,517.0,517.0,517.0,517.0,517.0,517.0,517.0,453.0,453.0,453.0,453.0,453.0,453.0,453.0,453.0,453.0,1.0,1.0,1.0,1.0,1.0,1.0,1.0,1.0,1.0,1.0,1.0,3.0,3.0,3.0,3.0,3.0,3.0,3.0,3.0,3.0,532.0,517.0,3.0,528.0,453.0,1.0,519.9666666666667,524.6666666666666,28.133333333333333,43.0,170.0,114.0
0,474.0,430.0,366.0,532.0,532.0,532.0,532.0,532.0,532.0,532.0,532.0,532.0,532.0,532.0,532.0,532.0,474.0,474.0,474.0,474.0,474.0,474.0,474.0,453.0,453.0,453.0,453.0,453.0,453.0,453.0,453.0,453.0,453.0,453.0,453.0,453.0,430.0,430.0,430.0,430.0,430.0,430.0,430.0,3.0,3.0,3.0,3.0,3.0,3.0,3.0,3.0,3.0,3.0,3.0,3.0,3.0,366.0,366.0,366.0,366.0,366.0,366.0,366.0,532.0,453.0,366.0,474.0,430.0,3.0,517.1333333333333,468.96666666666664,87.03333333333333,58.0,87.0,365.0
0,498.0,506.0,154.0,474.0,474.0,474.0,474.0,474.0,474.0,474.0,474.0,474.0,474.0,474.0,498.0,498.0,498.0,498.0,498.0,498.0,498.0,498.0,498.0,430.0,430.0,430.0,430.0,430.0,430.0,430.0,430.0,430.0,430.0,430.0,506.0,506.0,506.0,506.0,506.0,506.0,506.0,506.0,506.0,366.0,366.0,366.0,366.0,366.0,366.0,366.0,366.0,366.0,366.0,366.0,154.0,154.0,154.0,154.0,154.0,154.0,154.0,154.0,154.0,498.0,506.0,366.0,474.0,430.0,154.0,500.53333333333336,460.46666666666664,181.4,58.0,76.0,363.0
0,511.0,508.0,423.0,474.0,474.0,498.0,498.0,498.0,498.0,498.0,498.0,498.0,498.0,498.0,498.0,498.0,498.0,498.0,498.0,498.0,511.0,511.0,511.0,430.0,430.0,506.0,506.0,506.0,506.0,506.0,506.0,506.0,506.0,506.0,506.0,506.0,506.0,506.0,506.0,506.0,508.0,508.0,508.0,366.0,366.0,154.0,154.0,154.0,154.0,154.0,154.0,154.0,154.0,154.0,154.0,154.0,154.0,154.0,154.0,154.0,423.0,423.0,423.0,511.0,508.0,423.0,474.0,430.0,154.0,491.6333333333333,476.56666666666666,253.6,58.0,78.0,420.0
0,455.0,516.0,532.0,498.0,498.0,498.0,498.0,498.0,498.0,511.0,511.0,511.0,511.0,511.0,511.0,511.0,455.0,455.0,455.0,455.0,455.0,455.0,455.0,506.0,506.0,506.0,506.0,506.0,506.0,508.0,508.0,508.0,508.0,508.0,508.0,508.0,516.0,516.0,516.0,516.0,516.0,516.0,516.0,154.0,154.0,154.0,154.0,154.0,154.0,423.0,423.0,423.0,423.0,423.0,423.0,423.0,532.0,532.0,532.0,532.0,532.0,532.0,532.0,511.0,516.0,532.0,455.0,506.0,154.0,490.2,506.26666666666665,312.03333333333336,56.0,86.0,378.0
0,532.0,468.0,724.0,511.0,511.0,511.0,511.0,455.0,455.0,455.0,455.0,455.0,455.0,455.0,455.0,455.0,532.0,532.0,532.0,532.0,532.0,532.0,532.0,508.0,508.0,508.0,508.0,516.0,516.0,516.0,516.0,516.0,516.0,516.0,516.0,468.0,468.0,468.0,468.0,468.0,468.0,468.0,468.0,423.0,423.0,423.0,423.0,532.0,532.0,532.0,532.0,532.0,532.0,532.0,532.0,724.0,724.0,724.0,724.0,724.0,724.0,724.0,724.0,532.0,516.0,724.0,455.0,468.0,423.0,489.8,505.06666666666666,431.3666666666667,77.0,48.0,570.0
0,503.0,472.0,634.0,532.0,532.0,532.0,532.0,532.0,532.0,532.0,532.0,532.0,532.0,532.0,532.0,532.0,532.0,503.0,503.0,503.0,503.0,503.0,503.0,468.0,468.0,468.0,468.0,468.0,468.0,468.0,468.0,468.0,468.0,468.0,468.0,468.0,468.0,472.0,472.0,472.0,472.0,472.0,472.0,724.0,724.0,724.0,724.0,724.0,724.0,724.0,724.0,724.0,724.0,724.0,724.0,724.0,724.0,634.0,634.0,634.0,634.0,634.0,634.0,532.0,472.0,724.0,503.0,468.0,634.0,505.6666666666667,481.6,654.8,77.0,48.0,192.0
0,510.0,564.0,519.0,532.0,532.0,532.0,532.0,503.0,503.0,503.0,503.0,503.0,503.0,503.0,503.0,503.0,503.0,510.0,510.0,510.0,510.0,510.0,510.0,468.0,468.0,468.0,468.0,472.0,472.0,472.0,472.0,472.0,472.0,472.0,472.0,472.0,472.0,564.0,564.0,564.0,564.0,564.0,564.0,724.0,724.0,724.0,724.0,634.0,634.0,634.0,634.0,634.0,634.0,634.0,634.0,634.0,634.0,519.0,519.0,519.0,519.0,519.0,519.0,532.0,564.0,724.0,503.0,468.0,519.0,517.9333333333333,488.53333333333336,653.0,29.0,96.0,205.0
0,501.0,566.0,551.0,503.0,503.0,503.0,503.0,510.0,510.0,510.0,510.0,510.0,510.0,510.0,510.0,510.0,501.0,501.0,501.0,501.0,501.0,501.0,501.0,472.0,472.0,472.0,472.0,564.0,564.0,564.0,564.0,564.0,564.0,564.0,564.0,564.0,566.0,566.0,566.0,566.0,566.0,566.0,566.0,634.0,634.0,634.0,634.0,519.0,519.0,519.0,519.0,519.0,519.0,519.0,519.0,519.0,551.0,551.0,551.0,551.0,551.0,551.0,551.0,510.0,566.0,634.0,501.0,472.0,519.0,508.8,520.9333333333333,591.0666666666667,31.0,98.0,205.0
0,514.0,537.0,614.0,510.0,510.0,501.0,501.0,501.0,501.0,501.0,501.0,501.0,501.0,501.0,501.0,501.0,501.0,501.0,514.0,514.0,514.0,514.0,514.0,564.0,564.0,566.0,566.0,566.0,566.0,566.0,566.0,566.0,566.0,566.0,566.0,566.0,566.0,566.0,537.0,537.0,537.0,537.0,537.0,519.0,519.0,551.0,551.0,551.0,551.0,551.0,551.0,551.0,551.0,551.0,551.0,551.0,551.0,551.0,614.0,614.0,614.0,614.0,614.0,514.0,566.0,614.0,501.0,537.0,519.0,506.3,554.2333333333333,556.3666666666667,13.0,94.0,115.0
0,477.0,514.0,589.0,501.0,501.0,501.0,514.0,514.0,514.0,514.0,514.0,514.0,514.0,514.0,514.0,514.0,514.0,477.0,477.0,477.0,477.0,477.0,477.0,566.0,566.0,566.0,537.0,537.0,537.0,537.0,537.0,537.0,537.0,537.0,537.0,537.0,537.0,514.0,514.0,514.0,514.0,514.0,514.0,551.0,551.0,551.0,614.0,614.0,614.0,614.0,614.0,614.0,614.0,614.0,614.0,614.0,614.0,589.0,589.0,589.0,589.0,589.0,589.0,514.0,566.0,614.0,477.0,514.0,551.0,500.96666666666664,544.9666666666667,581.7,37.0,52.0,63.0
0,525.0,550.0,569.0,514.0,477.0,477.0,477.0,477.0,477.0,477.0,477.0,477.0,477.0,477.0,477.0,525.0,525.0,525.0,525.0,525.0,525.0,525.0,525.0,537.0,514.0,514.0,514.0,514.0,514.0,514.0,514.0,514.0,514.0,514.0,514.0,550.0,550.0,550.0,550.0,550.0,550.0,550.0,550.0,614.0,589.0,589.0,589.0,589.0,589.0,589.0,589.0,589.0,589.0,589.0,589.0,569.0,569.0,569.0,569.0,569.0,569.0,569.0,569.0,525.0,550.0,614.0,477.0,514.0,569.0,503.3666666666667,532.0333333333333,592.8333333333334,48.0,36.0,45.0
0,484.0,519.0,544.0,477.0,477.0,525.0,525.0,525.0,525.0,525.0,525.0,525.0,525.0,525.0,525.0,525.0,525.0,484.0,484.0,484.0,484.0,484.0,484.0,514.0,514.0,550.0,550.0,550.0,550.0,550.0,550.0,550.0,550.0,550.0,550.0,550.0,550.0,519.0,519.0,519.0,519.0,519.0,519.0,589.0,589.0,569.0,569.0,569.0,569.0,569.0,569.0,569.0,569.0,569.0,569.0,569.0,569.0,544.0,544.0,544.0,544.0,544.0,544.0,525.0,550.0,589.0,477.0,514.0,544.0,501.2,531.8,576.0,48.0,36.0,70.0
0,538.0,517.0,546.0,525.0,525.0,525.0,525.0,484.0,484.0,484.0,484.0,484.0,484.0,484.0,484.0,484.0,484.0,538.0,538.0,538.0,538.0,538.0,538.0,550.0,550.0,550.0,550.0,519.0,519.0,519.0,519.0,519.0,519.0,519.0,519.0,519.0,519.0,517.0,517.0,517.0,517.0,517.0,517.0,569.0,569.0,569.0,569.0,544.0,544.0,544.0,544.0,544.0,544.0,544.0,544.0,544.0,544.0,546.0,546.0,546.0,546.0,546.0,546.0,538.0,550.0,569.0,484.0,517.0,544.0,512.3333333333334,531.8666666666667,556.7333333333333,61.0,36.0,45.0
0,517.0,469.0,518.0,484.0,538.0,538.0,538.0,538.0,538.0,538.0,538.0,538.0,538.0,538.0,538.0,538.0,538.0,538.0,538.0,538.0,517.0,517.0,517.0,517.0,517.0,517.0,517.0,517.0,517.0,517.0,517.0,517.0,517.0,517.0,517.0,517.0,517.0,517.0,517.0,517.0,469.0,469.0,469.0,546.0,546.0,546.0,546.0,546.0,546.0,546.0,546.0,546.0,546.0,546.0,546.0,546.0,546.0,546.0,546.0,546.0,518.0,518.0,518.0,538.0,519.0,546.0,484.0,469.0,518.0,518.8666666666667,517.1666666666666,545.1666666666666,54.0,81.0,51.0
0,535.0,466.0,592.0,538.0,538.0,538.0,538.0,538.0,538.0,538.0,538.0,517.0,517.0,517.0,517.0,517.0,517.0,517.0,517.0,517.0,517.0,535.0,535.0,517.0,517.0,517.0,517.0,517.0,517.0,517.0,517.0,469.0,469.0,469.0,469.0,469.0,469.0,469.0,469.0,469.0,469.0,466.0,466.0,546.0,546.0,546.0,546.0,546.0,546.0,546.0,546.0,518.0,518.0,518.0,518.0,518.0,518.0,518.0,518.0,518.0,518.0,592.0,592.0,538.0,517.0,592.0,517.0,466.0,518.0,530.8,497.6,539.7333333333333,21.0,51.0,74.0
0,514.0,446.0,622.0,517.0,517.0,517.0,517.0,517.0,517.0,517.0,517.0,517.0,535.0,535.0,535.0,535.0,535.0,535.0,535.0,535.0,535.0,514.0,514.0,469.0,469.0,469.0,469.0,469.0,469.0,469.0,469.0,469.0,466.0,466.0,466.0,466.0,466.0,466.0,466.0,466.0,466.0,446.0,446.0,518.0,518.0,518.0,518.0,518.0,518.0,518.0,518.0,518.0,592.0,592.0,592.0,592.0,592.0,592.0,592.0,592.0,592.0,622.0,622.0,535.0,469.0,622.0,514.0,446.0,518.0,528.5,480.96666666666664,555.5333333333333,24.0,71.0,104.0
0,511.0,552.0,627.0,517.0,535.0,535.0,535.0,535.0,535.0,535.0,535.0,535.0,535.0,514.0,514.0,514.0,514.0,514.0,514.0,514.0,511.0,511.0,511.0,469.0,466.0,466.0,466.0,466.0,466.0,466.0,466.0,466.0,466.0,446.0,446.0,446.0,446.0,446.0,446.0,446.0,552.0,552.0,552.0,518.0,592.0,592.0,592.0,592.0,592.0,592.0,592.0,592.0,592.0,622.0,622.0,622.0,622.0,622.0,622.0,622.0,627.0,627.0,627.0,535.0,552.0,627.0,511.0,446.0,518.0,521.8,472.6333333333333,576.3,27.0,106.0,109.0
0,514.0,529.0,596.0,535.0,535.0,514.0,514.0,514.0,514.0,514.0,514.0,514.0,511.0,511.0,511.0,511.0,511.0,511.0,511.0,511.0,514.0,514.0,514.0,466.0,466.0,446.0,446.0,446.0,446.0,446.0,446.0,446.0,552.0,552.0,552.0,552.0,552.0,552.0,552.0,552.0,529.0,529.0,529.0,592.0,592.0,622.0,622.0,622.0,622.0,622.0,622.0,622.0,627.0,627.0,627.0,627.0,627.0,627.0,627.0,627.0,596.0,596.0,596.0,535.0,552.0,627.0,511.0,446.0,592.0,519.8,490.8666666666667,601.3333333333334,24.0,106.0,109.0
0,530.0,498.0,662.0,511.0,511.0,511.0,511.0,511.0,514.0,514.0,514.0,514.0,514.0,514.0,514.0,530.0,530.0,530.0,530.0,530.0,530.0,530.0,530.0,552.0,552.0,552.0,552.0,552.0,529.0,529.0,529.0,529.0,529.0,529.0,529.0,498.0,498.0,498.0,498.0,498.0,498.0,498.0,498.0,627.0,627.0,627.0,627.0,627.0,596.0,596.0,596.0,596.0,596.0,596.0,596.0,662.0,662.0,662.0,662.0,662.0,662.0,662.0,662.0,530.0,552.0,662.0,511.0,498.0,596.0,517.4666666666667,507.5,627.9333333333333,19.0,106.0,66.0
0,491.0,493.0,683.0,514.0,514.0,530.0,530.0,530.0,530.0,530.0,530.0,530.0,530.0,530.0,530.0,530.0,530.0,491.0,491.0,491.0,491.0,491.0,491.0,529.0,529.0,498.0,498.0,498.0,498.0,498.0,498.0,498.0,498.0,498.0,498.0,498.0,498.0,493.0,493.0,493.0,493.0,493.0,493.0,596.0,596.0,662.0,662.0,662.0,662.0,662.0,662.0,662.0,662.0,662.0,662.0,662.0,662.0,683.0,683.0,683.0,683.0,683.0,683.0,530.0,529.0,683.0,491.0,493.0,596.0,515.3,513.2333333333333,644.9666666666667,39.0,59.0,87.0
0,518.0,504.0,585.0,530.0,530.0,491.0,491.0,491.0,491.0,491.0,491.0,491.0,491.0,491.0,491.0,491.0,518.0,518.0,518.0,518.0,518.0,518.0,518.0,498.0,498.0,493.0,493.0,493.0,493.0,493.0,493.0,493.0,493.0,493.0,493.0,493.0,504.0,504.0,504.0,504.0,504.0,504.0,504.0,662.0,662.0,683.0,683.0,683.0,683.0,683.0,683.0,683.0,683.0,683.0,683.0,683.0,585.0,585.0,585.0,585.0,585.0,585.0,585.0,530.0,504.0,683.0,491.0,493.0,585.0,512.9,497.56666666666666,651.7333333333333,39.0,11.0,98.0
0,448.0,499.0,624.0,491.0,491.0,518.0,518.0,518.0,518.0,518.0,518.0,518.0,518.0,518.0,518.0,518.0,518.0,518.0,448.0,448.0,448.0,448.0,448.0,493.0,493.0,504.0,504.0,504.0,504.0,504.0,504.0,504.0,504.0,504.0,504.0,504.0,504.0,504.0,499.0,499.0,499.0,499.0,499.0,683.0,683.0,585.0,585.0,585.0,585.0,585.0,585.0,585.0,585.0,585.0,585.0,585.0,585.0,585.0,624.0,624.0,624.0,624.0,624.0,518.0,504.0,683.0,448.0,493.0,585.0,496.8333333333333,498.93333333333334,630.0,82.0,11.0,98.0
0,530.0,494.0,650.0,518.0,518.0,518.0,518.0,518.0,448.0,448.0,448.0,448.0,448.0,448.0,448.0,448.0,448.0,448.0,448.0,530.0,530.0,530.0,530.0,504.0,504.0,504.0,504.0,504.0,499.0,499.0,499.0,499.0,499.0,499.0,499.0,499.0,499.0,499.0,499.0,494.0,494.0,494.0,494.0,585.0,585.0,585.0,585.0,585.0,624.0,624.0,624.0,624.0,624.0,624.0,624.0,624.0,624.0,624.0,624.0,650.0,650.0,650.0,650.0,530.0,504.0,650.0,448.0,494.0,585.0,492.1333333333333,500.1,614.5,82.0,11.0,98.0
0,479.0,515.0,598.0,448.0,448.0,448.0,448.0,448.0,530.0,530.0,530.0,530.0,530.0,530.0,530.0,530.0,530.0,479.0,479.0,479.0,479.0,479.0,479.0,499.0,499.0,499.0,499.0,499.0,494.0,494.0,494.0,494.0,494.0,494.0,494.0,494.0,494.0,515.0,515.0,515.0,515.0,515.0,515.0,624.0,624.0,624.0,624.0,624.0,650.0,650.0,650.0,650.0,650.0,650.0,650.0,650.0,650.0,598.0,598.0,598.0,598.0,598.0,598.0,530.0,515.0,650.0,448.0,494.0,598.0,488.1333333333333,501.3666666666667,621.4,82.0,21.0,65.0
0,493.0,486.0,528.0,530.0,530.0,530.0,530.0,530.0,479.0,479.0,479.0,479.0,479.0,479.0,479.0,479.0,479.0,479.0,479.0,479.0,493.0,493.0,493.0,494.0,494.0,494.0,494.0,494.0,515.0,515.0,515.0,515.0,515.0,515.0,515.0,515.0,515.0,515.0,515.0,515.0,486.0,486.0,486.0,650.0,650.0,650.0,650.0,650.0,598.0,598.0,598.0,598.0,598.0,598.0,598.0,598.0,598.0,598.0,598.0,598.0,528.0,528.0,528.0,530.0,515.0,650.0,479.0,486.0,528.0,489.5,502.6,611.8,82.0,29.0,122.0
0,527.0,535.0,540.0,479.0,479.0,479.0,479.0,479.0,479.0,493.0,493.0,493.0,493.0,493.0,493.0,493.0,493.0,527.0,527.0,527.0,527.0,527.0,527.0,515.0,515.0,515.0,515.0,515.0,515.0,486.0,486.0,486.0,486.0,486.0,486.0,486.0,486.0,535.0,535.0,535.0,535.0,535.0,535.0,598.0,598.0,598.0,598.0,598.0,598.0,528.0,528.0,528.0,528.0,528.0,528.0,528.0,528.0,540.0,540.0,540.0,540.0,540.0,540.0,527.0,535.0,598.0,479.0,486.0,528.0,499.1333333333333,508.46666666666664,574.6666666666666,51.0,49.0,122.0
0,513.0,486.0,504.0,527.0,527.0,527.0,527.0,527.0,527.0,527.0,527.0,527.0,527.0,527.0,527.0,527.0,513.0,513.0,513.0,513.0,513.0,513.0,513.0,535.0,535.0,535.0,535.0,535.0,535.0,535.0,535.0,535.0,535.0,535.0,535.0,535.0,486.0,486.0,486.0,486.0,486.0,486.0,486.0,540.0,540.0,540.0,540.0,540.0,540.0,540.0,540.0,540.0,540.0,540.0,540.0,540.0,504.0,504.0,504.0,504.0,504.0,504.0,504.0,527.0,535.0,540.0,513.0,486.0,504.0,511.46666666666664,509.1666666666667,532.2666666666667,48.0,49.0,94.0
0,508.0,526.0,494.0,513.0,513.0,513.0,513.0,513.0,513.0,513.0,513.0,513.0,513.0,513.0,508.0,508.0,508.0,508.0,508.0,508.0,508.0,508.0,508.0,486.0,486.0,486.0,486.0,486.0,486.0,486.0,486.0,486.0,486.0,486.0,526.0,526.0,526.0,526.0,526.0,526.0,526.0,526.0,526.0,504.0,504.0,504.0,504.0,504.0,504.0,504.0,504.0,504.0,504.0,504.0,494.0,494.0,494.0,494.0,494.0,494.0,494.0,494.0,494.0,513.0,526.0,504.0,508.0,486.0,494.0,516.3333333333334,513.0,513.3333333333334,19.0,49.0,46.0
0,530.0,554.0,506.0,513.0,513.0,508.0,508.0,508.0,508.0,508.0,508.0,508.0,508.0,508.0,508.0,508.0,508.0,508.0,508.0,530.0,530.0,530.0,530.0,486.0,486.0,526.0,526.0,526.0,526.0,526.0,526.0,526.0,526.0,526.0,526.0,526.0,526.0,526.0,526.0,554.0,554.0,554.0,554.0,504.0,504.0,494.0,494.0,494.0,494.0,494.0,494.0,494.0,494.0,494.0,494.0,494.0,494.0,494.0,494.0,506.0,506.0,506.0,506.0,530.0,554.0,506.0,508.0,486.0,494.0,512.9333333333333,513.7333333333333,499.6,22.0,68.0,12.0
0,514.0,533.0,555.0,508.0,508.0,508.0,508.0,508.0,508.0,508.0,530.0,530.0,530.0,530.0,530.0,530.0,530.0,530.0,530.0,530.0,514.0,514.0,514.0,526.0,526.0,526.0,526.0,526.0,526.0,526.0,554.0,554.0,554.0,554.0,554.0,554.0,554.0,554.0,554.0,554.0,533.0,533.0,533.0,494.0,494.0,494.0,494.0,494.0,494.0,494.0,506.0,506.0,506.0,506.0,506.0,506.0,506.0,506.0,506.0,506.0,555.0,555.0,555.0,530.0,554.0,555.0,508.0,526.0,494.0,516.4333333333333,532.0333333333333,505.1,22.0,68.0,61.0
0,517.0,543.0,530.0,530.0,530.0,530.0,530.0,530.0,530.0,530.0,530.0,514.0,514.0,514.0,514.0,514.0,514.0,517.0,517.0,517.0,517.0,517.0,517.0,554.0,554.0,554.0,554.0,554.0,554.0,554.0,554.0,533.0,533.0,533.0,533.0,533.0,533.0,543.0,543.0,543.0,543.0,543.0,543.0,506.0,506.0,506.0,506.0,506.0,506.0,506.0,506.0,555.0,555.0,555.0,555.0,555.0,555.0,530.0,530.0,530.0,530.0,530.0,530.0,530.0,554.0,555.0,514.0,533.0,506.0,518.3333333333334,540.1333333333333,517.4,22.0,28.0,61.0
0,501.0,486.0,537.0,514.0,514.0,514.0,514.0,514.0,517.0,517.0,517.0,517.0,517.0,517.0,517.0,517.0,517.0,501.0,501.0,501.0,501.0,501.0,501.0,533.0,533.0,533.0,533.0,533.0,543.0,543.0,543.0,543.0,543.0,543.0,543.0,543.0,543.0,486.0,486.0,486.0,486.0,486.0,486.0,555.0,555.0,555.0,555.0,555.0,530.0,530.0,530.0,530.0,530.0,530.0,530.0,530.0,530.0,537.0,537.0,537.0,537.0,537.0,537.0,517.0,543.0,555.0,501.0,486.0,530.0,517.1,532.9,529.2,29.0,68.0,49.0
0,449.0,478.0,556.0,517.0,517.0,517.0,517.0,517.0,517.0,501.0,501.0,501.0,501.0,501.0,501.0,501.0,501.0,501.0,501.0,449.0,449.0,449.0,449.0,543.0,543.0,543.0,543.0,543.0,543.0,486.0,486.0,486.0,486.0,486.0,486.0,486.0,486.0,486.0,486.0,478.0,478.0,478.0,478.0,530.0,530.0,530.0,530.0,530.0,530.0,537.0,537.0,537.0,537.0,537.0,537.0,537.0,537.0,537.0,537.0,556.0,556.0,556.0,556.0,517.0,543.0,556.0,449.0,478.0,530.0,502.43333333333334,513.7,540.0,81.0,76.0,50.0
0,531.0,484.0,574.0,501.0,501.0,501.0,449.0,449.0,449.0,449.0,449.0,449.0,449.0,449.0,449.0,449.0,449.0,531.0,531.0,531.0,531.0,531.0,531.0,486.0,486.0,486.0,478.0,478.0,478.0,478.0,478.0,478.0,478.0,478.0,478.0,478.0,478.0,484.0,484.0,484.0,484.0,484.0,484.0,537.0,537.0,537.0,556.0,556.0,556.0,556.0,556.0,556.0,556.0,556.0,556.0,556.0,556.0,574.0,574.0,574.0,574.0,574.0,574.0,531.0,486.0,574.0,449.0,478.0,537.0,489.53333333333336,488.3666666666667,550.6666666666666,82.0,65.0,44.0
0,476.0,510.0,569.0,449.0,531.0,531.0,531.0,531.0,531.0,531.0,531.0,531.0,531.0,531.0,531.0,531.0,476.0,476.0,476.0,476.0,476.0,476.0,476.0,478.0,484.0,484.0,484.0,484.0,484.0,484.0,484.0,484.0,484.0,484.0,484.0,484.0,510.0,510.0,510.0,510.0,510.0,510.0,510.0,556.0,574.0,574.0,574.0,574.0,574.0,574.0,574.0,574.0,574.0,574.0,574.0,574.0,569.0,569.0,569.0,569.0,569.0,569.0,569.0,531.0,510.0,574.0,449.0,478.0,556.0,489.93333333333334,487.0,566.4,82.0,32.0,18.0
0,493.0,525.0,544.0,531.0,531.0,476.0,476.0,476.0,476.0,476.0,476.0,476.0,476.0,476.0,476.0,476.0,476.0,493.0,493.0,493.0,493.0,493.0,493.0,484.0,484.0,510.0,510.0,510.0,510.0,510.0,510.0,510.0,510.0,510.0,510.0,510.0,510.0,525.0,525.0,525.0,525.0,525.0,525.0,574.0,574.0,569.0,569.0,569.0,569.0,569.0,569.0,569.0,569.0,569.0,569.0,569.0,569.0,544.0,544.0,544.0,544.0,544.0,544.0,531.0,525.0,574.0,476.0,484.0,544.0,501.4,502.6,566.0,55.0,41.0,30.0
0,505.0,501.0,531.0,493.0,493.0,493.0,493.0,493.0,493.0,493.0,493.0,493.0,493.0,505.0,505.0,505.0,505.0,505.0,505.0,505.0,505.0,505.0,505.0,525.0,525.0,525.0,525.0,525.0,525.0,525.0,525.0,525.0,525.0,501.0,501.0,501.0,501.0,501.0,501.0,501.0,501.0,501.0,501.0,544.0,544.0,544.0,544.0,544.0,544.0,544.0,544.0,544.0,544.0,531.0,531.0,531.0,531.0,531.0,531.0,531.0,531.0,531.0,531.0,505.0,525.0,544.0,493.0,501.0,531.0,491.9,512.5,547.1666666666666,29.0,24.0,38.0
0,492.0,542.0,527.0,505.0,505.0,505.0,505.0,505.0,505.0,505.0,505.0,505.0,505.0,505.0,492.0,492.0,492.0,492.0,492.0,492.0,492.0,492.0,492.0,501.0,501.0,501.0,501.0,501.0,501.0,501.0,501.0,501.0,501.0,501.0,542.0,542.0,542.0,542.0,542.0,542.0,542.0,542.0,542.0,531.0,531.0,531.0,531.0,531.0,531.0,531.0,531.0,531.0,531.0,531.0,527.0,527.0,527.0,527.0,527.0,527.0,527.0,527.0,527.0,505.0,542.0,531.0,492.0,501.0,527.0,499.1,517.3,531.9666666666667,13.0,41.0,17.0
0,527.0,500.0,572.0,505.0,505.0,492.0,492.0,492.0,492.0,492.0,492.0,492.0,492.0,492.0,492.0,492.0,492.0,492.0,492.0,492.0,527.0,527.0,527.0,501.0,501.0,542.0,542.0,542.0,542.0,542.0,542.0,542.0,542.0,542.0,542.0,542.0,542.0,542.0,542.0,542.0,500.0,500.0,500.0,531.0,531.0,527.0,527.0,527.0,527.0,527.0,527.0,527.0,527.0,527.0,527.0,527.0,527.0,527.0,527.0,527.0,572.0,572.0,572.0,527.0,542.0,572.0,492.0,500.0,527.0,500.7,521.4,533.1,35.0,42.0,45.0
0,526.0,569.0,467.0,492.0,527.0,527.0,527.0,527.0,527.0,527.0,527.0,527.0,527.0,527.0,526.0,526.0,526.0,526.0,526.0,526.0,526.0,526.0,526.0,542.0,500.0,500.0,500.0,500.0,500.0,500.0,500.0,500.0,500.0,500.0,569.0,569.0,569.0,569.0,569.0,569.0,569.0,569.0,569.0,527.0,572.0,572.0,572.0,572.0,572.0,572.0,572.0,572.0,572.0,572.0,467.0,467.0,467.0,467.0,467.0,467.0,467.0,467.0,467.0,527.0,569.0,572.0,492.0,500.0,467.0,513.8666666666667,536.1,524.0,35.0,69.0,105.0
0,470.0,545.0,499.0,527.0,527.0,526.0,526.0,526.0,526.0,526.0,526.0,526.0,526.0,526.0,526.0,526.0,526.0,526.0,526.0,470.0,470.0,470.0,470.0,500.0,500.0,569.0,569.0,569.0,569.0,569.0,569.0,569.0,569.0,569.0,569.0,569.0,569.0,569.0,569.0,545.0,545.0,545.0,545.0,572.0,572.0,467.0,467.0,467.0,467.0,467.0,467.0,467.0,467.0,467.0,467.0,467.0,467.0,467.0,467.0,499.0,499.0,499.0,499.0,527.0,569.0,572.0,470.0,500.0,467.0,516.6,541.0,510.26666666666665,57.0,69.0,105.0
0,524.0,509.0,448.0,526.0,526.0,526.0,526.0,526.0,470.0,470.0,470.0,470.0,470.0,470.0,470.0,470.0,470.0,470.0,524.0,524.0,524.0,524.0,524.0,569.0,569.0,569.0,569.0,569.0,545.0,545.0,545.0,545.0,545.0,545.0,545.0,545.0,545.0,545.0,509.0,509.0,509.0,509.0,509.0,467.0,467.0,467.0,467.0,467.0,499.0,499.0,499.0,499.0,499.0,499.0,499.0,499.0,499.0,499.0,448.0,448.0,448.0,448.0,448.0,526.0,569.0,499.0,470.0,509.0,448.0,507.03333333333336,548.7,478.0,57.0,69.0,124.0
0,537.0,444.0,466.0,470.0,470.0,470.0,524.0,524.0,524.0,524.0,524.0,524.0,524.0,524.0,524.0,524.0,524.0,524.0,524.0,524.0,524.0,524.0,537.0,545.0,545.0,545.0,509.0,509.0,509.0,509.0,509.0,509.0,509.0,509.0,509.0,509.0,509.0,509.0,509.0,509.0,509.0,509.0,444.0,499.0,499.0,499.0,448.0,448.0,448.0,448.0,448.0,448.0,448.0,448.0,448.0,448.0,448.0,448.0,448.0,448.0,448.0,448.0,466.0,537.0,545.0,499.0,470.0,444.0,448.0,506.6333333333333,524.8333333333334,467.5,67.0,125.0,51.0
0,522.0,480.0,536.0,524.0,524.0,524.0,524.0,524.0,524.0,524.0,524.0,524.0,524.0,537.0,537.0,537.0,537.0,537.0,522.0,522.0,522.0,522.0,522.0,509.0,509.0,509.0,509.0,509.0,509.0,509.0,509.0,509.0,509.0,444.0,444.0,444.0,444.0,444.0,480.0,480.0,480.0,480.0,480.0,448.0,448.0,448.0,448.0,448.0,448.0,448.0,448.0,448.0,448.0,466.0,466.0,466.0,466.0,466.0,536.0,536.0,536.0,536.0,536.0,537.0,509.0,536.0,522.0,444.0,448.0,518.6333333333333,498.1333333333333,472.46666666666664,67.0,101.0,88.0
0,512.0,508.0,407.0,524.0,524.0,537.0,537.0,537.0,537.0,537.0,522.0,522.0,522.0,522.0,522.0,522.0,522.0,522.0,522.0,512.0,512.0,512.0,512.0,509.0,509.0,444.0,444.0,444.0,444.0,444.0,480.0,480.0,480.0,480.0,480.0,480.0,480.0,480.0,480.0,508.0,508.0,508.0,508.0,448.0,448.0,466.0,466.0,466.0,466.0,466.0,536.0,536.0,536.0,536.0,536.0,536.0,536.0,536.0,536.0,407.0,407.0,407.0,407.0,537.0,509.0,536.0,512.0,444.0,407.0,523.9666666666667,489.3333333333333,471.93333333333334,25.0,65.0,129.0
0,530.0,495.0,457.0,512.0,512.0,512.0,512.0,530.0,530.0,530.0,530.0,530.0,530.0,530.0,530.0,530.0,530.0,530.0,530.0,530.0,530.0,530.0,530.0,508.0,508.0,508.0,508.0,495.0,495.0,495.0,495.0,495.0,495.0,495.0,495.0,495.0,495.0,495.0,495.0,495.0,495.0,495.0,495.0,407.0,407.0,407.0,407.0,457.0,457.0,457.0,457.0,457.0,457.0,457.0,457.0,457.0,457.0,457.0,457.0,457.0,457.0,457.0,457.0,530.0,508.0,457.0,512.0,495.0,407.0,522.9333333333333,497.3333333333333,450.8666666666667,18.0,28.0,129.0
0,484.0,482.0,476.0,530.0,530.0,530.0,530.0,530.0,530.0,530.0,530.0,530.0,530.0,530.0,530.0,530.0,484.0,484.0,484.0,484.0,484.0,484.0,484.0,495.0,495.0,495.0,495.0,495.0,495.0,495.0,495.0,495.0,495.0,495.0,495.0,495.0,482.0,482.0,482.0,482.0,482.0,482.0,482.0,457.0,457.0,457.0,457.0,457.0,457.0,457.0,457.0,457.0,457.0,457.0,457.0,457.0,476.0,476.0,476.0,476.0,476.0,476.0,476.0,530.0,495.0,476.0,484.0,482.0,457.0,518.6666666666666,492.4,459.76666666666665,46.0,26.0,69.0
0,543.0,526.0,521.0,530.0,530.0,484.0,484.0,484.0,484.0,484.0,484.0,484.0,484.0,484.0,484.0,484.0,484.0,484.0,543.0,543.0,543.0,543.0,543.0,495.0,495.0,482.0,482.0,482.0,482.0,482.0,482.0,482.0,482.0,482.0,482.0,482.0,482.0,482.0,526.0,526.0,526.0,526.0,526.0,457.0,457.0,476.0,476.0,476.0,476.0,476.0,476.0,476.0,476.0,476.0,476.0,476.0,476.0,476.0,521.0,521.0,521.0,521.0,521.0,543.0,526.0,521.0,484.0,482.0,457.0,512.2333333333333,494.53333333333336,475.9,59.0,44.0,64.0
0,513.0,548.0,499.0,484.0,484.0,484.0,484.0,543.0,543.0,543.0,543.0,543.0,543.0,543.0,543.0,543.0,543.0,513.0,513.0,513.0,513.0,513.0,513.0,482.0,482.0,482.0,482.0,526.0,526.0,526.0,526.0,526.0,526.0,526.0,526.0,526.0,526.0,548.0,548.0,548.0,548.0,548.0,548.0,476.0,476.0,476.0,476.0,521.0,521.0,521.0,521.0,521.0,521.0,521.0,521.0,521.0,521.0,499.0,499.0,499.0,499.0,499.0,499.0,543.0,548.0,521.0,484.0,482.0,476.0,511.0,510.3,494.96666666666664,59.0,66.0,64.0
0,527.0,510.0,545.0,543.0,543.0,543.0,543.0,513.0,513.0,513.0,513.0,513.0,513.0,513.0,513.0,513.0,513.0,513.0,513.0,527.0,527.0,527.0,527.0,526.0,526.0,526.0,526.0,548.0,548.0,548.0,548.0,548.0,548.0,548.0,548.0,548.0,548.0,548.0,548.0,510.0,510.0,510.0,510.0,521.0,521.0,521.0,521.0,499.0,499.0,499.0,499.0,499.0,499.0,499.0,499.0,499.0,499.0,499.0,499.0,545.0,545.0,545.0,545.0,543.0,548.0,545.0,513.0,510.0,499.0,521.0,526.8,509.4,59.0,66.0,69.0
0,549.0,509.0,544.0,513.0,513.0,513.0,513.0,527.0,527.0,527.0,527.0,527.0,527.0,527.0,527.0,549.0,549.0,549.0,549.0,549.0,549.0,549.0,549.0,548.0,548.0,548.0,548.0,510.0,510.0,510.0,510.0,510.0,510.0,510.0,510.0,509.0,509.0,509.0,509.0,509.0,509.0,509.0,509.0,499.0,499.0,499.0,499.0,545.0,545.0,545.0,545.0,545.0,545.0,545.0,545.0,544.0,544.0,544.0,544.0,544.0,544.0,544.0,544.0,549.0,548.0,545.0,513.0,509.0,499.0,528.3333333333334,526.0,524.7333333333333,36.0,39.0,46.0
0,482.0,553.0,488.0,549.0,549.0,549.0,549.0,549.0,549.0,549.0,549.0,549.0,549.0,549.0,549.0,549.0,482.0,482.0,482.0,482.0,482.0,482.0,482.0,509.0,509.0,509.0,509.0,509.0,509.0,509.0,509.0,509.0,509.0,509.0,509.0,509.0,553.0,553.0,553.0,553.0,553.0,553.0,553.0,544.0,544.0,544.0,544.0,544.0,544.0,544.0,544.0,544.0,544.0,544.0,544.0,544.0,488.0,488.0,488.0,488.0,488.0,488.0,488.0,549.0,553.0,544.0,482.0,509.0,488.0,525.1,522.1333333333333,528.2,67.0,44.0,57.0
0,540.0,551.0,570.0,482.0,482.0,482.0,540.0,540.0,540.0,540.0,540.0,540.0,540.0,540.0,540.0,540.0,540.0,540.0,540.0,540.0,540.0,540.0,540.0,553.0,553.0,553.0,551.0,551.0,551.0,551.0,551.0,551.0,551.0,551.0,551.0,551.0,551.0,551.0,551.0,551.0,551.0,551.0,551.0,488.0,488.0,488.0,570.0,570.0,570.0,570.0,570.0,570.0,570.0,570.0,570.0,570.0,570.0,570.0,570.0,570.0,570.0,570.0,570.0,540.0,553.0,570.0,482.0,551.0,488.0,521.5666666666667,547.4666666666667,540.0666666666667,67.0,44.0,82.0
0,562.0,544.0,572.0,540.0,540.0,540.0,540.0,540.0,540.0,540.0,540.0,540.0,540.0,540.0,540.0,562.0,562.0,562.0,562.0,562.0,562.0,562.0,562.0,551.0,551.0,551.0,551.0,551.0,551.0,551.0,551.0,551.0,551.0,551.0,551.0,544.0,544.0,544.0,544.0,544.0,544.0,544.0,544.0,570.0,570.0,570.0,570.0,570.0,570.0,570.0,570.0,570.0,570.0,570.0,570.0,572.0,572.0,572.0,572.0,572.0,572.0,572.0,572.0,562.0,551.0,572.0,540.0,544.0,570.0,538.6,549.8,562.2,80.0,9.0,84.0
0,514.0,477.0,555.0,540.0,540.0,540.0,540.0,540.0,562.0,562.0,562.0,562.0,562.0,562.0,562.0,562.0,562.0,562.0,562.0,514.0,514.0,514.0,514.0,551.0,551.0,551.0,551.0,551.0,544.0,544.0,544.0,544.0,544.0,544.0,544.0,544.0,544.0,544.0,544.0,477.0,477.0,477.0,477.0,570.0,570.0,570.0,570.0,570.0,572.0,572.0,572.0,572.0,572.0,572.0,572.0,572.0,572.0,572.0,572.0,555.0,555.0,555.0,555.0,562.0,551.0,572.0,514.0,477.0,555.0,546.2,540.8,569.3,48.0,74.0,17.0
0,516.0,518.0,550.0,562.0,562.0,562.0,562.0,562.0,514.0,514.0,514.0,514.0,514.0,514.0,514.0,514.0,514.0,514.0,514.0,516.0,516.0,516.0,516.0,544.0,544.0,544.0,544.0,544.0,477.0,477.0,477.0,477.0,477.0,477.0,477.0,477.0,477.0,477.0,477.0,518.0,518.0,518.0,518.0,572.0,572.0,572.0,572.0,572.0,555.0,555.0,555.0,555.0,555.0,555.0,555.0,555.0,555.0,555.0,555.0,550.0,550.0,550.0,550.0,562.0,544.0,572.0,514.0,477.0,550.0,536.0666666666667,516.6666666666666,562.6333333333333,48.0,74.0,22.0
0,543.0,489.0,563.0,514.0,514.0,514.0,514.0,514.0,514.0,516.0,516.0,516.0,516.0,516.0,516.0,516.0,516.0,516.0,516.0,543.0,543.0,543.0,543.0,477.0,477.0,477.0,477.0,477.0,477.0,518.0,518.0,518.0,518.0,518.0,518.0,518.0,518.0,518.0,518.0,489.0,489.0,489.0,489.0,555.0,555.0,555.0,555.0,555.0,555.0,550.0,550.0,550.0,550.0,550.0,550.0,550.0,550.0,550.0,550.0,563.0,563.0,563.0,563.0,543.0,518.0,563.0,514.0,477.0,550.0,526.5333333333333,503.43333333333334,557.2333333333333,48.0,67.0,22.0
0,515.0,477.0,530.0,516.0,516.0,516.0,516.0,516.0,516.0,543.0,543.0,543.0,543.0,543.0,543.0,543.0,543.0,515.0,515.0,515.0,515.0,515.0,515.0,518.0,518.0,518.0,518.0,518.0,518.0,489.0,489.0,489.0,489.0,489.0,489.0,489.0,489.0,477.0,477.0,477.0,477.0,477.0,477.0,550.0,550.0,550.0,550.0,550.0,550.0,563.0,563.0,563.0,563.0,563.0,563.0,563.0,563.0,530.0,530.0,530.0,530.0,530.0,530.0,543.0,518.0,563.0,515.0,477.0,530.0,522.6,493.8666666666667,550.4666666666667,29.0,41.0,33.0
0,514.0,434.0,512.0,543.0,543.0,543.0,543.0,543.0,543.0,543.0,543.0,515.0,515.0,515.0,515.0,515.0,515.0,515.0,515.0,515.0,515.0,514.0,514.0,489.0,489.0,489.0,489.0,489.0,489.0,489.0,489.0,477.0,477.0,477.0,477.0,477.0,477.0,477.0,477.0,477.0,477.0,434.0,434.0,563.0,563.0,563.0,563.0,563.0,563.0,563.0,563.0,530.0,530.0,530.0,530.0,530.0,530.0,530.0,530.0,530.0,530.0,512.0,512.0,543.0,489.0,563.0,514.0,434.0,512.0,522.7333333333333,491.0,544.2666666666667,29.0,84.0,51.0
0,541.0,506.0,529.0,515.0,515.0,515.0,515.0,514.0,514.0,514.0,514.0,514.0,514.0,514.0,514.0,514.0,514.0,514.0,514.0,541.0,541.0,541.0,541.0,477.0,477.0,477.0,477.0,434.0,434.0,434.0,434.0,434.0,434.0,434.0,434.0,434.0,434.0,434.0,434.0,506.0,506.0,506.0,506.0,530.0,530.0,530.0,530.0,512.0,512.0,512.0,512.0,512.0,512.0,512.0,512.0,512.0,512.0,512.0,512.0,529.0,529.0,529.0,529.0,541.0,506.0,530.0,514.0,434.0,512.0,521.8,465.26666666666665,527.0666666666667,29.0,72.0,51.0
0,488.0,489.0,505.0,514.0,514.0,514.0,514.0,514.0,541.0,541.0,541.0,541.0,541.0,541.0,541.0,541.0,541.0,541.0,541.0,488.0,488.0,488.0,488.0,434.0,434.0,434.0,434.0,434.0,506.0,506.0,506.0,506.0,506.0,506.0,506.0,506.0,506.0,506.0,506.0,489.0,489.0,489.0,489.0,512.0,512.0,512.0,512.0,512.0,529.0,529.0,529.0,529.0,529.0,529.0,529.0,529.0,529.0,529.0,529.0,505.0,505.0,505.0,505.0,541.0,506.0,529.0,488.0,434.0,505.0,520.5333333333333,472.03333333333336,519.1,53.0,72.0,25.0
0,537.0,540.0,509.0,541.0,541.0,541.0,541.0,541.0,488.0,488.0,488.0,488.0,488.0,488.0,488.0,488.0,537.0,537.0,537.0,537.0,537.0,537.0,537.0,506.0,506.0,506.0,506.0,506.0,489.0,489.0,489.0,489.0,489.0,489.0,489.0,489.0,540.0,540.0,540.0,540.0,540.0,540.0,540.0,529.0,529.0,529.0,529.0,529.0,505.0,505.0,505.0,505.0,505.0,505.0,505.0,505.0,509.0,509.0,509.0,509.0,509.0,509.0,509.0,541.0,540.0,529.0,488.0,489.0,505.0,522.3333333333334,499.8,515.6666666666666,53.0,106.0,24.0
0,500.0,504.0,511.0,488.0,488.0,488.0,537.0,537.0,537.0,537.0,537.0,537.0,537.0,537.0,537.0,537.0,537.0,500.0,500.0,500.0,500.0,500.0,500.0,489.0,489.0,489.0,540.0,540.0,540.0,540.0,540.0,540.0,540.0,540.0,540.0,540.0,540.0,504.0,504.0,504.0,504.0,504.0,504.0,505.0,505.0,509.0,509.0,509.0,509.0,509.0,509.0,509.0,509.0,509.0,509.0,509.0,509.0,511.0,511.0,511.0,511.0,511.0,511.0,537.0,540.0,511.0,488.0,489.0,505.0,518.4333333333333,514.7333333333333,511.6,53.0,51.0,24.0
0,497.0,484.0,473.0,537.0,537.0,537.0,537.0,500.0,500.0,500.0,500.0,500.0,500.0,500.0,500.0,500.0,500.0,497.0,497.0,497.0,497.0,497.0,497.0,540.0,540.0,540.0,540.0,504.0,504.0,504.0,504.0,504.0,504.0,504.0,504.0,504.0,504.0,484.0,484.0,484.0,484.0,484.0,484.0,509.0,509.0,509.0,509.0,511.0,511.0,511.0,511.0,511.0,511.0,511.0,511.0,511.0,511.0,473.0,473.0,473.0,473.0,473.0,473.0,537.0,540.0,511.0,497.0,484.0,473.0,513.4,513.4,502.2,49.0,56.0,38.0
0,523.0,509.0,486.0,500.0,500.0,500.0,500.0,500.0,497.0,497.0,497.0,497.0,497.0,497.0,497.0,497.0,497.0,497.0,523.0,523.0,523.0,523.0,523.0,504.0,504.0,504.0,504.0,504.0,484.0,484.0,484.0,484.0,484.0,484.0,484.0,484.0,484.0,484.0,509.0,509.0,509.0,509.0,509.0,511.0,511.0,511.0,511.0,511.0,473.0,473.0,473.0,473.0,473.0,473.0,473.0,473.0,473.0,473.0,486.0,486.0,486.0,486.0,486.0,523.0,509.0,511.0,497.0,484.0,473.0,509.0,504.1666666666667,493.8333333333333,40.0,56.0,38.0
0,516.0,520.0,486.0,497.0,497.0,497.0,523.0,523.0,523.0,523.0,523.0,523.0,523.0,523.0,516.0,516.0,516.0,516.0,516.0,516.0,516.0,516.0,516.0,484.0,484.0,484.0,509.0,509.0,509.0,509.0,509.0,509.0,509.0,509.0,520.0,520.0,520.0,520.0,520.0,520.0,520.0,520.0,520.0,473.0,473.0,473.0,486.0,486.0,486.0,486.0,486.0,486.0,486.0,486.0,486.0,486.0,486.0,486.0,486.0,486.0,486.0,486.0,486.0,523.0,520.0,486.0,497.0,484.0,473.0,509.93333333333334,503.46666666666664,484.1666666666667,26.0,36.0,38.0
0,474.0,516.0,486.0,516.0,516.0,516.0,516.0,516.0,516.0,516.0,516.0,516.0,516.0,516.0,516.0,516.0,474.0,474.0,474.0,474.0,474.0,474.0,474.0,520.0,520.0,520.0,520.0,520.0,520.0,520.0,520.0,520.0,520.0,520.0,520.0,520.0,516.0,516.0,516.0,516.0,516.0,516.0,516.0,486.0,486.0,486.0,486.0,486.0,486.0,486.0,486.0,486.0,486.0,486.0,486.0,486.0,486.0,486.0,486.0,486.0,486.0,486.0,486.0,516.0,520.0,486.0,474.0,516.0,486.0,507.6,516.8666666666667,486.0,49.0,11.0,0.0
0,561.0,489.0,508.0,516.0,516.0,516.0,516.0,474.0,474.0,474.0,474.0,474.0,474.0,474.0,474.0,474.0,474.0,474.0,474.0,561.0,561.0,561.0,561.0,520.0,520.0,520.0,520.0,516.0,516.0,516.0,516.0,516.0,516.0,516.0,516.0,516.0,516.0,516.0,516.0,489.0,489.0,489.0,489.0,486.0,486.0,486.0,486.0,486.0,486.0,486.0,486.0,486.0,486.0,486.0,486.0,486.0,486.0,486.0,486.0,508.0,508.0,508.0,508.0,561.0,520.0,508.0,474.0,489.0,486.0,505.2,514.2666666666667,488.93333333333334,87.0,31.0,22.0
0,551.0,459.0,507.0,474.0,474.0,474.0,474.0,474.0,561.0,561.0,561.0,561.0,561.0,561.0,561.0,561.0,551.0,551.0,551.0,551.0,551.0,551.0,551.0,516.0,516.0,516.0,516.0,516.0,489.0,489.0,489.0,489.0,489.0,489.0,489.0,489.0,459.0,459.0,459.0,459.0,459.0,459.0,459.0,486.0,486.0,486.0,486.0,486.0,508.0,508.0,508.0,508.0,508.0,508.0,508.0,508.0,507.0,507.0,507.0,507.0,507.0,507.0,507.0,561.0,516.0,508.0,474.0,459.0,486.0,519.3666666666667,495.9,496.76666666666665,87.0,61.0,22.0
0,533.0,462.0,487.0,561.0,561.0,561.0,551.0,551.0,551.0,551.0,551.0,551.0,551.0,551.0,551.0,551.0,551.0,533.0,533.0,533.0,533.0,533.0,533.0,489.0,489.0,489.0,459.0,459.0,459.0,459.0,459.0,459.0,459.0,459.0,459.0,459.0,459.0,462.0,462.0,462.0,462.0,462.0,462.0,508.0,508.0,508.0,507.0,507.0,507.0,507.0,507.0,507.0,507.0,507.0,507.0,507.0,507.0,487.0,487.0,487.0,487.0,487.0,487.0,561.0,489.0,508.0,533.0,459.0,487.0,537.2333333333333,477.1,499.76666666666665,87.0,57.0,22.0
0,506.0,522.0,516.0,551.0,533.0,533.0,533.0,533.0,533.0,533.0,533.0,533.0,533.0,533.0,533.0,533.0,533.0,533.0,533.0,506.0,506.0,506.0,506.0,459.0,462.0,462.0,462.0,462.0,462.0,462.0,462.0,462.0,462.0,462.0,462.0,462.0,462.0,462.0,462.0,522.0,522.0,522.0,522.0,507.0,487.0,487.0,487.0,487.0,487.0,487.0,487.0,487.0,487.0,487.0,487.0,487.0,487.0,487.0,487.0,516.0,516.0,516.0,516.0,551.0,522.0,516.0,506.0,459.0,487.0,536.0,468.9,498.2,45.0,63.0,29.0
0,474.0,527.0,486.0,533.0,533.0,533.0,533.0,533.0,533.0,533.0,506.0,506.0,506.0,506.0,506.0,506.0,506.0,506.0,506.0,474.0,474.0,474.0,474.0,462.0,462.0,462.0,462.0,462.0,462.0,462.0,522.0,522.0,522.0,522.0,522.0,522.0,522.0,522.0,522.0,527.0,527.0,527.0,527.0,487.0,487.0,487.0,487.0,487.0,487.0,487.0,516.0,516.0,516.0,516.0,516.0,516.0,516.0,516.0,516.0,486.0,486.0,486.0,486.0,533.0,527.0,516.0,474.0,462.0,486.0,518.2333333333333,488.46666666666664,496.9,77.0,68.0,30.0
0,459.0,483.0,525.0,506.0,506.0,506.0,506.0,506.0,506.0,506.0,474.0,474.0,474.0,474.0,474.0,474.0,474.0,474.0,459.0,459.0,459.0,459.0,459.0,522.0,522.0,522.0,522.0,522.0,522.0,522.0,527.0,527.0,527.0,527.0,527.0,527.0,527.0,527.0,483.0,483.0,483.0,483.0,483.0,516.0,516.0,516.0,516.0,516.0,516.0,516.0,486.0,486.0,486.0,486.0,486.0,486.0,486.0,486.0,525.0,525.0,525.0,525.0,525.0,506.0,527.0,525.0,459.0,483.0,486.0,496.8333333333333,500.8333333333333,501.76666666666665,74.0,65.0,39.0
0,542.0,502.0,519.0,474.0,474.0,474.0,474.0,459.0,459.0,459.0,459.0,459.0,459.0,459.0,459.0,459.0,542.0,542.0,542.0,542.0,542.0,542.0,542.0,527.0,527.0,527.0,527.0,483.0,483.0,483.0,483.0,483.0,483.0,483.0,483.0,483.0,502.0,502.0,502.0,502.0,502.0,502.0,502.0,486.0,486.0,486.0,486.0,525.0,525.0,525.0,525.0,525.0,525.0,525.0,525.0,525.0,519.0,519.0,519.0,519.0,519.0,519.0,519.0,542.0,527.0,525.0,459.0,483.0,486.0,491.76666666666665,506.96666666666664,511.4,83.0,44.0,39.0
0,495.0,565.0,548.0,459.0,459.0,459.0,459.0,542.0,542.0,542.0,542.0,542.0,542.0,542.0,542.0,542.0,542.0,542.0,542.0,495.0,495.0,495.0,495.0,483.0,483.0,483.0,483.0,502.0,502.0,502.0,502.0,502.0,502.0,502.0,502.0,502.0,502.0,502.0,502.0,565.0,565.0,565.0,565.0,525.0,525.0,525.0,525.0,519.0,519.0,519.0,519.0,519.0,519.0,519.0,519.0,519.0,519.0,519.0,519.0,548.0,548.0,548.0,548.0,542.0,565.0,548.0,459.0,483.0,519.0,499.5,508.8666666666667,519.1666666666666,83.0,82.0,62.0
0,585.0,544.0,539.0,542.0,542.0,542.0,542.0,542.0,542.0,495.0,495.0,495.0,495.0,495.0,495.0,495.0,495.0,585.0,585.0,585.0,585.0,585.0,585.0,502.0,502.0,502.0,502.0,502.0,502.0,565.0,565.0,565.0,565.0,565.0,565.0,565.0,565.0,544.0,544.0,544.0,544.0,544.0,544.0,519.0,519.0,519.0,519.0,519.0,519.0,548.0,548.0,548.0,548.0,548.0,548.0,548.0,548.0,539.0,539.0,539.0,539.0,539.0,539.0,585.0,565.0,548.0,495.0,502.0,519.0,527.0,524.6666666666666,531.5333333333333,126.0,82.0,29.0
0,499.0,484.0,537.0,495.0,495.0,495.0,495.0,495.0,495.0,585.0,585.0,585.0,585.0,585.0,585.0,585.0,585.0,585.0,585.0,585.0,585.0,585.0,499.0,565.0,565.0,565.0,565.0,565.0,565.0,544.0,544.0,544.0,544.0,544.0,544.0,544.0,544.0,544.0,544.0,544.0,544.0,544.0,484.0,548.0,548.0,548.0,548.0,548.0,548.0,539.0,539.0,539.0,539.0,539.0,539.0,539.0,539.0,539.0,539.0,539.0,539.0,539.0,537.0,585.0,565.0,548.0,495.0,484.0,537.0,546.6666666666666,536.4,536.0,90.0,81.0,29.0
0,522.0,541.0,565.0,585.0,585.0,585.0,585.0,499.0,499.0,499.0,499.0,499.0,499.0,499.0,499.0,499.0,499.0,499.0,499.0,499.0,499.0,522.0,522.0,544.0,544.0,544.0,544.0,484.0,484.0,484.0,484.0,484.0,484.0,484.0,484.0,484.0,484.0,484.0,484.0,484.0,484.0,541.0,541.0,539.0,539.0,539.0,539.0,537.0,537.0,537.0,537.0,537.0,537.0,537.0,537.0,537.0,537.0,537.0,537.0,537.0,537.0,565.0,565.0,585.0,544.0,565.0,499.0,484.0,537.0,536.9,514.6,539.1666666666666,90.0,81.0,28.0
0,522.0,541.0,565.0,499.0,499.0,499.0,499.0,499.0,499.0,499.0,499.0,499.0,499.0,499.0,499.0,522.0,522.0,522.0,522.0,522.0,522.0,522.0,522.0,484.0,484.0,484.0,484.0,484.0,484.0,484.0,484.0,484.0,484.0,484.0,484.0,541.0,541.0,541.0,541.0,541.0,541.0,541.0,541.0,537.0,537.0,537.0,537.0,537.0,537.0,537.0,537.0,537.0,537.0,537.0,537.0,565.0,565.0,565.0,565.0,565.0,565.0,565.0,565.0,522.0,541.0,565.0,499.0,484.0,537.0,525.2,513.2,544.9333333333333,86.0,60.0,28.0
0,491.0,491.0,518.0,499.0,499.0,499.0,499.0,499.0,522.0,522.0,522.0,522.0,522.0,522.0,522.0,522.0,482.0,482.0,482.0,482.0,482.0,482.0,491.0,484.0,484.0,484.0,484.0,484.0,541.0,541.0,541.0,541.0,541.0,541.0,541.0,541.0,536.0,536.0,536.0,536.0,536.0,536.0,491.0,537.0,537.0,537.0,537.0,537.0,565.0,565.0,565.0,565.0,565.0,565.0,565.0,565.0,560.0,560.0,560.0,560.0,560.0,560.0,518.0,522.0,541.0,565.0,482.0,484.0,518.0,501.46666666666664,509.8333333333333,548.4333333333333,40.0,57.0,47.0
0,478.0,489.0,607.0,522.0,522.0,482.0,482.0,482.0,482.0,482.0,482.0,491.0,491.0,491.0,491.0,491.0,491.0,478.0,478.0,478.0,478.0,478.0,478.0,541.0,541.0,536.0,536.0,536.0,536.0,536.0,536.0,491.0,491.0,491.0,491.0,491.0,491.0,489.0,489.0,489.0,489.0,489.0,489.0,565.0,565.0,560.0,560.0,560.0,560.0,560.0,560.0,518.0,518.0,518.0,518.0,518.0,518.0,607.0,607.0,607.0,607.0,607.0,607.0,522.0,541.0,607.0,478.0,489.0,518.0,496.3666666666667,512.0666666666667,556.3,44.0,57.0,89.0
0,508.0,496.0,510.0,491.0,491.0,491.0,491.0,478.0,478.0,478.0,478.0,478.0,478.0,478.0,478.0,478.0,478.0,478.0,508.0,508.0,508.0,508.0,508.0,491.0,491.0,491.0,491.0,489.0,489.0,489.0,489.0,489.0,489.0,489.0,489.0,489.0,489.0,489.0,496.0,496.0,496.0,496.0,496.0,518.0,518.0,518.0,518.0,607.0,607.0,607.0,607.0,607.0,607.0,607.0,607.0,607.0,607.0,607.0,510.0,510.0,510.0,510.0,510.0,508.0,496.0,607.0,478.0,489.0,510.0,488.3,501.76666666666665,559.2666666666667,44.0,52.0,97.0
0,507.0,524.0,499.0,478.0,478.0,478.0,478.0,478.0,508.0,508.0,508.0,508.0,508.0,508.0,508.0,508.0,508.0,508.0,507.0,507.0,507.0,507.0,507.0,489.0,489.0,489.0,489.0,489.0,496.0,496.0,496.0,496.0,496.0,496.0,496.0,496.0,496.0,496.0,524.0,524.0,524.0,524.0,524.0,607.0,607.0,607.0,607.0,607.0,510.0,510.0,510.0,510.0,510.0,510.0,510.0,510.0,510.0,510.0,499.0,499.0,499.0,499.0,499.0,508.0,524.0,607.0,478.0,489.0,499.0,494.56666666666666,497.43333333333334,544.8,30.0,35.0,108.0
0,537.0,526.0,508.0,508.0,508.0,508.0,508.0,507.0,507.0,507.0,507.0,507.0,507.0,507.0,507.0,507.0,537.0,537.0,537.0,537.0,537.0,537.0,537.0,496.0,496.0,496.0,496.0,524.0,524.0,524.0,524.0,524.0,524.0,524.0,524.0,524.0,526.0,526.0,526.0,526.0,526.0,526.0,526.0,510.0,510.0,510.0,510.0,499.0,499.0,499.0,499.0,499.0,499.0,499.0,499.0,499.0,508.0,508.0,508.0,508.0,508.0,508.0,508.0,537.0,526.0,510.0,507.0,496.0,499.0,510.46666666666664,510.46666666666664,519.1666666666666,59.0,37.0,108.0
0,559.0,502.0,524.0,507.0,507.0,537.0,537.0,537.0,537.0,537.0,537.0,537.0,537.0,537.0,537.0,537.0,537.0,537.0,559.0,559.0,559.0,559.0,559.0,524.0,524.0,526.0,526.0,526.0,526.0,526.0,526.0,526.0,526.0,526.0,526.0,526.0,526.0,526.0,502.0,502.0,502.0,502.0,502.0,499.0,499.0,508.0,508.0,508.0,508.0,508.0,508.0,508.0,508.0,508.0,508.0,508.0,508.0,508.0,524.0,524.0,524.0,524.0,524.0,559.0,526.0,524.0,507.0,502.0,499.0,528.7666666666667,518.4,508.1666666666667,52.0,30.0,25.0
0,483.0,508.0,507.0,537.0,537.0,537.0,537.0,537.0,537.0,559.0,559.0,559.0,559.0,559.0,559.0,559.0,559.0,559.0,559.0,483.0,483.0,483.0,483.0,526.0,526.0,526.0,526.0,526.0,526.0,502.0,502.0,502.0,502.0,502.0,502.0,502.0,502.0,502.0,502.0,508.0,508.0,508.0,508.0,508.0,508.0,508.0,508.0,508.0,508.0,524.0,524.0,524.0,524.0,524.0,524.0,524.0,524.0,524.0,524.0,507.0,507.0,507.0,507.0,559.0,526.0,524.0,483.0,502.0,507.0,534.1333333333333,515.4,512.3,76.0,24.0,25.0
0,505.0,520.0,449.0,483.0,483.0,483.0,483.0,483.0,483.0,483.0,505.0,505.0,505.0,505.0,505.0,505.0,505.0,505.0,505.0,505.0,505.0,505.0,505.0,508.0,508.0,508.0,508.0,508.0,508.0,508.0,520.0,520.0,520.0,520.0,520.0,520.0,520.0,520.0,520.0,520.0,520.0,520.0,520.0,507.0,507.0,507.0,507.0,507.0,507.0,507.0,449.0,449.0,449.0,449.0,449.0,449.0,449.0,449.0,449.0,449.0,449.0,449.0,449.0,505.0,520.0,507.0,483.0,508.0,449.0,507.73333333333335,512.0,485.26666666666665,76.0,18.0,75.0
0,503.0,499.0,448.0,505.0,505.0,505.0,505.0,505.0,505.0,505.0,505.0,505.0,505.0,505.0,505.0,505.0,503.0,503.0,503.0,503.0,503.0,503.0,503.0,520.0,520.0,520.0,520.0,520.0,520.0,520.0,520.0,520.0,520.0,520.0,520.0,520.0,499.0,499.0,499.0,499.0,499.0,499.0,499.0,449.0,449.0,449.0,449.0,449.0,449.0,449.0,449.0,449.0,449.0,449.0,449.0,449.0,448.0,448.0,448.0,448.0,448.0,448.0,448.0,505.0,520.0,449.0,503.0,499.0,448.0,500.1333333333333,512.7,460.3666666666667,22.0,21.0,59.0
0,514.0,490.0,515.0,505.0,505.0,503.0,503.0,503.0,503.0,503.0,503.0,503.0,503.0,503.0,503.0,503.0,514.0,514.0,514.0,514.0,514.0,514.0,514.0,520.0,520.0,499.0,499.0,499.0,499.0,499.0,499.0,499.0,499.0,499.0,499.0,499.0,490.0,490.0,490.0,490.0,490.0,490.0,490.0,449.0,449.0,448.0,448.0,448.0,448.0,448.0,448.0,448.0,448.0,448.0,448.0,448.0,515.0,515.0,515.0,515.0,515.0,515.0,515.0,514.0,520.0,515.0,503.0,490.0,448.0,506.3666666666667,505.3,464.03333333333336,11.0,30.0,67.0
0,525.0,528.0,431.0,514.0,514.0,514.0,514.0,514.0,514.0,514.0,514.0,514.0,514.0,514.0,514.0,514.0,514.0,525.0,525.0,525.0,525.0,525.0,525.0,490.0,490.0,490.0,490.0,490.0,490.0,490.0,490.0,490.0,490.0,490.0,490.0,490.0,490.0,528.0,528.0,528.0,528.0,528.0,528.0,515.0,515.0,515.0,515.0,515.0,515.0,515.0,515.0,515.0,515.0,515.0,515.0,515.0,515.0,431.0,431.0,431.0,431.0,431.0,431.0,525.0,528.0,515.0,514.0,490.0,431.0,512.5333333333333,500.6,475.8666666666667,22.0,38.0,84.0
0,505.0,532.0,509.0,514.0,525.0,525.0,525.0,525.0,525.0,525.0,525.0,525.0,525.0,525.0,525.0,525.0,525.0,505.0,505.0,505.0,505.0,505.0,505.0,490.0,528.0,528.0,528.0,528.0,528.0,528.0,528.0,528.0,528.0,528.0,528.0,528.0,528.0,532.0,532.0,532.0,532.0,532.0,532.0,431.0,431.0,431.0,431.0,431.0,431.0,431.0,431.0,431.0,431.0,431.0,431.0,431.0,431.0,509.0,509.0,509.0,509.0,509.0,509.0,525.0,532.0,515.0,505.0,490.0,431.0,518.3,514.6,472.2,20.0,42.0,84.0
0,496.0,496.0,486.0,525.0,525.0,525.0,505.0,505.0,505.0,505.0,505.0,505.0,505.0,505.0,505.0,505.0,505.0,505.0,505.0,496.0,496.0,496.0,496.0,528.0,528.0,528.0,532.0,532.0,532.0,532.0,532.0,532.0,532.0,532.0,532.0,532.0,532.0,532.0,532.0,496.0,496.0,496.0,496.0,431.0,431.0,431.0,509.0,509.0,509.0,509.0,509.0,509.0,509.0,509.0,509.0,509.0,509.0,509.0,509.0,486.0,486.0,486.0,486.0,525.0,532.0,509.0,496.0,496.0,431.0,512.4666666666667,525.4666666666667,472.1333333333333,29.0,36.0,78.0
0,520.0,515.0,454.0,505.0,505.0,505.0,505.0,496.0,496.0,496.0,496.0,496.0,496.0,496.0,496.0,496.0,520.0,520.0,520.0,520.0,520.0,520.0,520.0,532.0,532.0,532.0,532.0,496.0,496.0,496.0,496.0,496.0,496.0,496.0,496.0,496.0,515.0,515.0,515.0,515.0,515.0,515.0,515.0,509.0,509.0,509.0,509.0,486.0,486.0,486.0,486.0,486.0,486.0,486.0,486.0,486.0,454.0,454.0,454.0,454.0,454.0,454.0,454.0,520.0,532.0,509.0,496.0,496.0,454.0,506.46666666666664,517.1,486.6666666666667,29.0,36.0,78.0
0,521.0,536.0,451.0,496.0,496.0,496.0,520.0,520.0,520.0,520.0,520.0,520.0,520.0,520.0,520.0,520.0,520.0,520.0,520.0,521.0,521.0,521.0,521.0,496.0,496.0,496.0,515.0,515.0,515.0,515.0,515.0,515.0,515.0,515.0,515.0,515.0,515.0,515.0,515.0,536.0,536.0,536.0,536.0,486.0,486.0,486.0,454.0,454.0,454.0,454.0,454.0,454.0,454.0,454.0,454.0,454.0,454.0,454.0,454.0,451.0,451.0,451.0,451.0,521.0,536.0,486.0,496.0,496.0,451.0,510.93333333333334,514.3666666666667,470.53333333333336,25.0,40.0,58.0
0,488.0,526.0,547.0,520.0,520.0,520.0,520.0,520.0,521.0,521.0,521.0,521.0,521.0,521.0,521.0,488.0,488.0,488.0,488.0,488.0,488.0,488.0,488.0,515.0,515.0,515.0,515.0,515.0,536.0,536.0,536.0,536.0,536.0,536.0,536.0,526.0,526.0,526.0,526.0,526.0,526.0,526.0,526.0,454.0,454.0,454.0,454.0,454.0,451.0,451.0,451.0,451.0,451.0,451.0,451.0,547.0,547.0,547.0,547.0,547.0,547.0,547.0,547.0,521.0,536.0,547.0,488.0,515.0,451.0,510.1,521.5666666666667,480.23333333333335,33.0,40.0,96.0
0,524.0,509.0,507.0,488.0,488.0,488.0,488.0,488.0,488.0,488.0,488.0,488.0,488.0,488.0,524.0,524.0,524.0,524.0,524.0,524.0,524.0,524.0,524.0,526.0,526.0,526.0,526.0,526.0,526.0,526.0,526.0,526.0,526.0,526.0,509.0,509.0,509.0,509.0,509.0,509.0,509.0,509.0,509.0,547.0,547.0,547.0,547.0,547.0,547.0,547.0,547.0,547.0,547.0,547.0,507.0,507.0,507.0,507.0,507.0,507.0,507.0,507.0,507.0,524.0,526.0,547.0,488.0,509.0,507.0,503.1,523.1333333333333,520.3333333333334,36.0,27.0,96.0
0,496.0,546.0,487.0,524.0,524.0,524.0,524.0,524.0,524.0,524.0,496.0,496.0,496.0,496.0,496.0,496.0,496.0,496.0,496.0,496.0,496.0,496.0,496.0,509.0,509.0,509.0,509.0,509.0,509.0,509.0,546.0,546.0,546.0,546.0,546.0,546.0,546.0,546.0,546.0,546.0,546.0,546.0,546.0,507.0,507.0,507.0,507.0,507.0,507.0,507.0,487.0,487.0,487.0,487.0,487.0,487.0,487.0,487.0,487.0,487.0,487.0,487.0,487.0,524.0,546.0,507.0,496.0,509.0,487.0,507.06666666666666,527.3,503.6666666666667,36.0,37.0,60.0
0,481.0,552.0,564.0,496.0,496.0,496.0,496.0,496.0,512.0,512.0,512.0,512.0,512.0,512.0,512.0,481.0,481.0,481.0,481.0,481.0,481.0,481.0,481.0,546.0,546.0,546.0,546.0,546.0,548.0,548.0,548.0,548.0,548.0,548.0,548.0,552.0,552.0,552.0,552.0,552.0,552.0,552.0,552.0,487.0,487.0,487.0,487.0,487.0,556.0,556.0,556.0,556.0,556.0,556.0,556.0,564.0,564.0,564.0,564.0,564.0,564.0,564.0,564.0,512.0,552.0,564.0,481.0,546.0,487.0,497.7,546.7,524.0333333333333,43.0,43.0,77.0
0,436.0,535.0,574.0,481.0,481.0,481.0,481.0,481.0,481.0,481.0,481.0,481.0,481.0,481.0,481.0,481.0,481.0,481.0,436.0,436.0,436.0,436.0,436.0,552.0,552.0,552.0,552.0,552.0,552.0,552.0,552.0,552.0,552.0,552.0,552.0,552.0,552.0,552.0,535.0,535.0,535.0,535.0,535.0,564.0,564.0,564.0,564.0,564.0,564.0,564.0,564.0,564.0,564.0,564.0,564.0,564.0,564.0,564.0,574.0,574.0,574.0,574.0,574.0,481.0,552.0,574.0,436.0,535.0,564.0,482.26666666666665,547.9,560.9666666666667,76.0,17.0,87.0
0,534.0,569.0,548.0,481.0,481.0,481.0,436.0,436.0,436.0,436.0,436.0,436.0,436.0,436.0,436.0,436.0,436.0,534.0,534.0,534.0,534.0,534.0,534.0,552.0,552.0,552.0,535.0,535.0,535.0,535.0,535.0,535.0,535.0,535.0,535.0,535.0,535.0,569.0,569.0,569.0,569.0,569.0,569.0,564.0,564.0,564.0,574.0,574.0,574.0,574.0,574.0,574.0,574.0,574.0,574.0,574.0,574.0,548.0,548.0,548.0,548.0,548.0,548.0,534.0,569.0,574.0,436.0,535.0,548.0,475.1,549.1666666666666,564.4666666666667,98.0,34.0,26.0
0,516.0,478.0,526.0,436.0,436.0,436.0,534.0,534.0,534.0,534.0,534.0,534.0,534.0,534.0,534.0,534.0,534.0,534.0,534.0,534.0,516.0,516.0,516.0,535.0,535.0,535.0,569.0,569.0,569.0,569.0,569.0,569.0,569.0,569.0,569.0,569.0,569.0,569.0,569.0,569.0,478.0,478.0,478.0,574.0,574.0,574.0,548.0,548.0,548.0,548.0,548.0,548.0,548.0,548.0,548.0,548.0,548.0,548.0,548.0,548.0,526.0,526.0,526.0,534.0,569.0,574.0,436.0,478.0,526.0,493.3333333333333,549.3333333333334,557.1333333333333,98.0,91.0,48.0
0,481.0,483.0,581.0,534.0,534.0,534.0,534.0,534.0,534.0,534.0,534.0,534.0,516.0,516.0,516.0,516.0,516.0,516.0,516.0,516.0,481.0,481.0,481.0,569.0,569.0,569.0,569.0,569.0,569.0,569.0,569.0,569.0,478.0,478.0,478.0,478.0,478.0,478.0,478.0,478.0,483.0,483.0,483.0,548.0,548.0,548.0,548.0,548.0,548.0,548.0,548.0,548.0,526.0,526.0,526.0,526.0,526.0,526.0,526.0,526.0,581.0,581.0,581.0,534.0,569.0,581.0,481.0,478.0,526.0,510.8333333333333,531.6,548.9,98.0,91.0,55.0
0,506.0,532.0,498.0,534.0,516.0,516.0,516.0,516.0,516.0,516.0,516.0,516.0,481.0,481.0,481.0,481.0,481.0,481.0,481.0,481.0,506.0,506.0,506.0,569.0,478.0,478.0,478.0,478.0,478.0,478.0,478.0,478.0,483.0,483.0,483.0,483.0,483.0,483.0,483.0,483.0,532.0,532.0,532.0,548.0,526.0,526.0,526.0,526.0,526.0,526.0,526.0,526.0,581.0,581.0,581.0,581.0,581.0,581.0,581.0,581.0,498.0,498.0,498.0,534.0,569.0,581.0,481.0,478.0,498.0,512.2666666666667,518.1,545.9333333333333,53.0,91.0,83.0
0,500.0,525.0,521.0,481.0,481.0,481.0,481.0,481.0,481.0,481.0,506.0,506.0,506.0,506.0,506.0,506.0,506.0,506.0,500.0,500.0,500.0,500.0,500.0,483.0,483.0,483.0,483.0,483.0,483.0,483.0,532.0,532.0,532.0,532.0,532.0,532.0,532.0,532.0,525.0,525.0,525.0,525.0,525.0,581.0,581.0,581.0,581.0,581.0,581.0,581.0,498.0,498.0,498.0,498.0,498.0,498.0,498.0,498.0,521.0,521.0,521.0,521.0,521.0,506.0,532.0,581.0,481.0,483.0,498.0,502.1333333333333,504.8333333333333,532.3333333333334,53.0,91.0,83.0
0,515.0,495.0,571.0,506.0,506.0,506.0,506.0,506.0,500.0,500.0,500.0,500.0,500.0,500.0,500.0,500.0,500.0,500.0,515.0,515.0,515.0,515.0,515.0,532.0,532.0,532.0,532.0,532.0,525.0,525.0,525.0,525.0,525.0,525.0,525.0,525.0,525.0,525.0,495.0,495.0,495.0,495.0,495.0,498.0,498.0,498.0,498.0,498.0,521.0,521.0,521.0,521.0,521.0,521.0,521.0,521.0,521.0,521.0,571.0,571.0,571.0,571.0,571.0,515.0,532.0,571.0,500.0,495.0,498.0,500.5,513.7,534.4333333333333,34.0,49.0,83.0
0,494.0,531.0,512.0,500.0,500.0,500.0,500.0,500.0,500.0,515.0,515.0,515.0,515.0,515.0,515.0,515.0,515.0,515.0,494.0,494.0,494.0,494.0,494.0,525.0,525.0,525.0,525.0,525.0,525.0,495.0,495.0,495.0,495.0,495.0,495.0,495.0,495.0,495.0,531.0,531.0,531.0,531.0,531.0,521.0,521.0,521.0,521.0,521.0,521.0,571.0,571.0,571.0,571.0,571.0,571.0,571.0,571.0,571.0,512.0,512.0,512.0,512.0,512.0,515.0,531.0,571.0,494.0,495.0,512.0,504.7,518.4,529.9,21.0,37.0,73.0
0,520.0,512.0,525.0,515.0,515.0,515.0,515.0,515.0,515.0,515.0,515.0,494.0,494.0,494.0,494.0,494.0,494.0,494.0,494.0,494.0,520.0,520.0,520.0,495.0,495.0,495.0,495.0,495.0,495.0,495.0,495.0,531.0,531.0,531.0,531.0,531.0,531.0,531.0,531.0,531.0,512.0,512.0,512.0,571.0,571.0,571.0,571.0,571.0,571.0,571.0,571.0,512.0,512.0,512.0,512.0,512.0,512.0,512.0,512.0,512.0,525.0,525.0,525.0,520.0,531.0,571.0,494.0,495.0,512.0,504.7,516.5,533.7,26.0,36.0,59.0
0,511.0,501.0,493.0,494.0,494.0,494.0,494.0,520.0,520.0,520.0,520.0,520.0,520.0,520.0,520.0,520.0,520.0,511.0,511.0,511.0,511.0,511.0,511.0,531.0,531.0,531.0,531.0,512.0,512.0,512.0,512.0,512.0,512.0,512.0,512.0,512.0,512.0,501.0,501.0,501.0,501.0,501.0,501.0,512.0,512.0,512.0,512.0,525.0,525.0,525.0,525.0,525.0,525.0,525.0,525.0,525.0,525.0,493.0,493.0,493.0,493.0,493.0,493.0,520.0,531.0,525.0,494.0,501.0,493.0,509.56666666666666,512.6666666666666,522.3666666666667,26.0,36.0,78.0
0,531.0,523.0,478.0,520.0,520.0,511.0,511.0,511.0,511.0,511.0,511.0,511.0,511.0,511.0,511.0,511.0,511.0,511.0,531.0,531.0,531.0,531.0,531.0,512.0,512.0,501.0,501.0,501.0,501.0,501.0,501.0,501.0,501.0,501.0,501.0,501.0,501.0,501.0,523.0,523.0,523.0,523.0,523.0,525.0,525.0,493.0,493.0,493.0,493.0,493.0,493.0,493.0,493.0,493.0,493.0,493.0,493.0,493.0,478.0,478.0,478.0,478.0,478.0,531.0,523.0,525.0,511.0,501.0,478.0,516.2,510.3333333333333,502.43333333333334,37.0,30.0,47.0
0,527.0,520.0,518.0,511.0,511.0,531.0,531.0,531.0,531.0,531.0,531.0,531.0,531.0,531.0,531.0,527.0,527.0,527.0,527.0,527.0,527.0,527.0,527.0,501.0,501.0,523.0,523.0,523.0,523.0,523.0,523.0,523.0,523.0,523.0,523.0,520.0,520.0,520.0,520.0,520.0,520.0,520.0,520.0,493.0,493.0,478.0,478.0,478.0,478.0,478.0,478.0,478.0,478.0,478.0,478.0,518.0,518.0,518.0,518.0,518.0,518.0,518.0,518.0,531.0,523.0,518.0,511.0,501.0,478.0,521.9333333333333,513.4,494.6666666666667,20.0,22.0,40.0
0,471.0,466.0,490.0,527.0,527.0,527.0,527.0,527.0,527.0,527.0,527.0,527.0,527.0,527.0,527.0,527.0,527.0,471.0,471.0,471.0,471.0,471.0,471.0,520.0,520.0,520.0,520.0,520.0,520.0,520.0,520.0,520.0,520.0,520.0,520.0,520.0,520.0,466.0,466.0,466.0,466.0,466.0,466.0,518.0,518.0,518.0,518.0,518.0,518.0,518.0,518.0,518.0,518.0,518.0,518.0,518.0,518.0,490.0,490.0,490.0,490.0,490.0,490.0,527.0,520.0,518.0,471.0,466.0,490.0,517.1333333333333,510.2,499.06666666666666,60.0,57.0,40.0
0,500.0,514.0,549.0,527.0,527.0,527.0,527.0,527.0,471.0,471.0,471.0,471.0,471.0,471.0,471.0,471.0,471.0,471.0,471.0,500.0,500.0,500.0,500.0,520.0,520.0,520.0,520.0,520.0,466.0,466.0,466.0,466.0,466.0,466.0,466.0,466.0,466.0,466.0,466.0,514.0,514.0,514.0,514.0,518.0,518.0,518.0,518.0,518.0,490.0,490.0,490.0,490.0,490.0,490.0,490.0,490.0,490.0,490.0,490.0,549.0,549.0,549.0,549.0,527.0,520.0,549.0,471.0,466.0,490.0,503.0,499.5,510.53333333333336,60.0,57.0,71.0
0,500.0,513.0,518.0,471.0,471.0,471.0,471.0,500.0,500.0,500.0,500.0,500.0,500.0,500.0,500.0,500.0,500.0,500.0,500.0,500.0,500.0,500.0,500.0,466.0,466.0,466.0,466.0,514.0,514.0,514.0,514.0,514.0,514.0,514.0,514.0,514.0,514.0,513.0,513.0,513.0,513.0,513.0,513.0,490.0,490.0,490.0,490.0,549.0,549.0,549.0,549.0,549.0,549.0,549.0,549.0,549.0,549.0,518.0,518.0,518.0,518.0,518.0,518.0,500.0,514.0,549.0,471.0,466.0,490.0,492.06666666666666,496.8,518.0666666666667,56.0,54.0,59.0
