,emg_ampl_0,emg_ampl_1,emg_ampl_2,emg_min_0,emg_min_1,emg_min_2,emg_med_0,emg_med_1,emg_med_2,emg_prev_0_0,emg_prev_0_1,emg_prev_0_2,emg_prev_0_3,emg_prev_0_4,emg_prev_0_5,emg_prev_0_6,emg_prev_0_7,emg_prev_0_8,emg_prev_0_9,emg_prev_0_10,emg_prev_0_11,emg_prev_0_12,emg_prev_0_13,emg_prev_0_14,emg_prev_0_15,emg_prev_0_16,emg_prev_0_17,emg_prev_0_18,emg_prev_0_19,emg_prev_1_0,emg_prev_1_1,emg_prev_1_2,emg_prev_1_3,emg_prev_1_4,emg_prev_1_5,emg_prev_1_6,emg_prev_1_7,emg_prev_1_8,emg_prev_1_9,emg_prev_1_10,emg_prev_1_11,emg_prev_1_12,emg_prev_1_13,emg_prev_1_14,emg_prev_1_15,emg_prev_1_16,emg_prev_1_17,emg_prev_1_18,emg_prev_1_19,emg_prev_2_0,emg_prev_2_1,emg_prev_2_2,emg_prev_2_3,emg_prev_2_4,emg_prev_2_5,emg_prev_2_6,emg_prev_2_7,emg_prev_2_8,emg_prev_2_9,emg_prev_2_10,emg_prev_2_11,emg_prev_2_12,emg_prev_2_13,emg_prev_2_14,emg_prev_2_15,emg_prev_2_16,emg_prev_2_17,emg_prev_2_18,emg_prev_2_19,emg_0,emg_1,emg_2,emg_max_0,emg_max_1,emg_max_2
0,45.0,347.0,24.0,482.0,328.0,493.0,494.0,420.53333333333336,510.6,482.0,482.0,482.0,482.0,482.0,482.0,482.0,482.0,482.0,482.0,482.0,482.0,527.0,527.0,527.0,527.0,527.0,527.0,527.0,527.0,328.0,328.0,328.0,328.0,328.0,328.0,328.0,328.0,328.0,328.0,328.0,328.0,675.0,675.0,675.0,675.0,675.0,675.0,675.0,675.0,517.0,517.0,517.0,517.0,517.0,517.0,517.0,517.0,517.0,517.0,517.0,517.0,493.0,493.0,493.0,493.0,493.0,493.0,493.0,493.0,500,500,500,527.0,675.0,517.0
0,45.0,347.0,24.0,482.0,328.0,493.0,494.0,420.53333333333336,510.6,482.0,482.0,482.0,482.0,482.0,482.0,482.0,482.0,482.0,482.0,482.0,482.0,527.0,527.0,527.0,527.0,527.0,527.0,527.0,527.0,328.0,328.0,328.0,328.0,328.0,328.0,328.0,328.0,328.0,328.0,328.0,328.0,675.0,675.0,675.0,675.0,675.0,675.0,675.0,675.0,517.0,517.0,517.0,517.0,517.0,517.0,517.0,517.0,517.0,517.0,517.0,517.0,493.0,493.0,493.0,493.0,493.0,493.0,493.0,493.0,500,500,500,527.0,675.0,517.0
0,45.0,347.0,24.0,482.0,328.0,493.0,507.5,524.6333333333333,503.4,482.0,482.0,482.0,527.0,527.0,527.0,527.0,527.0,527.0,527.0,527.0,527.0,527.0,527.0,527.0,527.0,527.0,527.0,527.0,527.0,328.0,328.0,328.0,675.0,675.0,675.0,675.0,675.0,675.0,675.0,675.0,675.0,675.0,675.0,675.0,675.0,675.0,675.0,675.0,675.0,517.0,517.0,517.0,493.0,493.0,493.0,493.0,493.0,493.0,493.0,493.0,493.0,493.0,493.0,493.0,493.0,493.0,493.0,493.0,493.0,500,500,500,527.0,675.0,517.0
0,61.0,313.0,53.0,466.0,362.0,517.0,488.06666666666666,479.96666666666664,516.8666666666667,483.0,483.0,483.0,483.0,483.0,483.0,483.0,483.0,483.0,483.0,483.0,483.0,466.0,466.0,466.0,466.0,466.0,466.0,466.0,466.0,456.0,456.0,456.0,456.0,456.0,456.0,456.0,456.0,456.0,456.0,456.0,456.0,362.0,362.0,362.0,362.0,362.0,362.0,362.0,362.0,517.0,517.0,517.0,517.0,517.0,517.0,517.0,517.0,517.0,517.0,517.0,517.0,546.0,546.0,546.0,546.0,546.0,546.0,546.0,546.0,500,500,500,483.0,456.0,546.0
0,9.0,116.0,79.0,466.0,362.0,467.0,468.4,392.93333333333334,524.9333333333333,466.0,466.0,466.0,466.0,466.0,466.0,466.0,466.0,466.0,466.0,466.0,475.0,475.0,475.0,475.0,475.0,475.0,475.0,475.0,475.0,362.0,362.0,362.0,362.0,362.0,362.0,362.0,362.0,362.0,362.0,362.0,478.0,478.0,478.0,478.0,478.0,478.0,478.0,478.0,478.0,546.0,546.0,546.0,546.0,546.0,546.0,546.0,546.0,546.0,546.0,546.0,467.0,467.0,467.0,467.0,467.0,467.0,467.0,467.0,467.0,500,500,500,475.0,478.0,546.0
0,50.0,116.0,79.0,475.0,391.0,467.0,480.03333333333336,440.3,494.3,475.0,475.0,475.0,475.0,475.0,475.0,475.0,475.0,475.0,475.0,475.0,475.0,516.0,516.0,516.0,516.0,516.0,516.0,516.0,516.0,478.0,478.0,478.0,478.0,478.0,478.0,478.0,478.0,478.0,478.0,478.0,478.0,391.0,391.0,391.0,391.0,391.0,391.0,391.0,391.0,467.0,467.0,467.0,467.0,467.0,467.0,467.0,467.0,467.0,467.0,467.0,467.0,536.0,536.0,536.0,536.0,536.0,536.0,536.0,536.0,500,500,500,516.0,478.0,536.0
0,71.0,166.0,69.0,516.0,391.0,506.0,517.1666666666666,449.76666666666665,516.5,516.0,516.0,516.0,516.0,516.0,516.0,516.0,516.0,516.0,516.0,516.0,516.0,546.0,546.0,546.0,546.0,546.0,546.0,546.0,546.0,391.0,391.0,391.0,391.0,391.0,391.0,391.0,391.0,391.0,391.0,391.0,391.0,557.0,557.0,557.0,557.0,557.0,557.0,557.0,557.0,536.0,536.0,536.0,536.0,536.0,536.0,536.0,536.0,536.0,536.0,536.0,536.0,506.0,506.0,506.0,506.0,506.0,506.0,506.0,506.0,500,500,500,546.0,557.0,536.0
0,30.0,166.0,30.0,516.0,391.0,506.0,535.0,496.1333333333333,517.0,516.0,546.0,546.0,546.0,546.0,546.0,546.0,546.0,546.0,546.0,546.0,546.0,546.0,546.0,546.0,546.0,546.0,546.0,546.0,546.0,391.0,557.0,557.0,557.0,557.0,557.0,557.0,557.0,557.0,557.0,557.0,557.0,557.0,557.0,557.0,557.0,557.0,557.0,557.0,499.0,536.0,506.0,506.0,506.0,506.0,506.0,506.0,506.0,506.0,506.0,506.0,506.0,506.0,506.0,506.0,506.0,506.0,506.0,506.0,542.0,500,500,500,546.0,557.0,536.0
0,31.0,179.0,45.0,515.0,378.0,497.0,533.0,513.8,516.8,546.0,546.0,546.0,546.0,546.0,546.0,515.0,515.0,515.0,515.0,515.0,515.0,515.0,515.0,526.0,526.0,526.0,526.0,526.0,526.0,557.0,557.0,557.0,557.0,557.0,557.0,499.0,499.0,499.0,499.0,499.0,499.0,499.0,499.0,378.0,378.0,378.0,378.0,378.0,378.0,506.0,506.0,506.0,506.0,506.0,506.0,542.0,542.0,542.0,542.0,542.0,542.0,542.0,542.0,497.0,497.0,497.0,497.0,497.0,497.0,500,500,500,546.0,557.0,542.0
0,34.0,306.0,64.0,512.0,378.0,478.0,522.4666666666667,477.03333333333336,510.3666666666667,515.0,515.0,526.0,526.0,526.0,526.0,526.0,526.0,526.0,526.0,526.0,526.0,526.0,512.0,512.0,512.0,512.0,512.0,512.0,512.0,499.0,499.0,378.0,378.0,378.0,378.0,378.0,378.0,378.0,378.0,378.0,378.0,378.0,684.0,684.0,684.0,684.0,684.0,684.0,684.0,542.0,542.0,497.0,497.0,497.0,497.0,497.0,497.0,497.0,497.0,497.0,497.0,497.0,478.0,478.0,478.0,478.0,478.0,478.0,478.0,500,500,500,526.0,684.0,542.0
0,14.0,306.0,28.0,512.0,643.0,478.0,515.9666666666667,608.5,485.23333333333335,512.0,512.0,512.0,512.0,512.0,512.0,512.0,512.0,512.0,512.0,512.0,512.0,512.0,519.0,519.0,519.0,519.0,519.0,519.0,519.0,684.0,684.0,684.0,684.0,684.0,684.0,684.0,684.0,684.0,684.0,684.0,684.0,684.0,643.0,643.0,643.0,643.0,643.0,643.0,643.0,478.0,478.0,478.0,478.0,478.0,478.0,478.0,478.0,478.0,478.0,478.0,478.0,478.0,506.0,506.0,506.0,506.0,506.0,506.0,506.0,500,500,500,519.0,684.0,506.0
0,7.0,198.0,33.0,516.0,486.0,506.0,516.9666666666667,631.6333333333333,500.1333333333333,519.0,519.0,519.0,519.0,519.0,519.0,519.0,519.0,519.0,519.0,519.0,519.0,519.0,519.0,519.0,516.0,516.0,516.0,516.0,516.0,643.0,643.0,643.0,643.0,643.0,643.0,643.0,643.0,643.0,643.0,643.0,643.0,643.0,643.0,643.0,486.0,486.0,486.0,486.0,486.0,506.0,506.0,506.0,506.0,506.0,506.0,506.0,506.0,506.0,506.0,506.0,506.0,506.0,506.0,506.0,511.0,511.0,511.0,511.0,511.0,500,500,500,519.0,643.0,511.0
0,24.0,157.0,6.0,495.0,486.0,511.0,516.3,539.0,509.3666666666667,516.0,516.0,516.0,516.0,516.0,516.0,516.0,516.0,516.0,516.0,516.0,516.0,516.0,516.0,516.0,516.0,516.0,495.0,495.0,495.0,486.0,486.0,486.0,486.0,486.0,486.0,486.0,486.0,486.0,486.0,486.0,486.0,486.0,486.0,486.0,486.0,486.0,506.0,506.0,506.0,511.0,511.0,511.0,511.0,511.0,511.0,511.0,511.0,511.0,511.0,511.0,511.0,511.0,511.0,511.0,511.0,511.0,512.0,512.0,512.0,500,500,500,516.0,506.0,512.0
0,21.0,26.0,1.0,495.0,506.0,511.0,502.2,501.8666666666667,511.53333333333336,495.0,495.0,495.0,495.0,495.0,495.0,495.0,495.0,495.0,495.0,495.0,503.0,503.0,503.0,503.0,503.0,503.0,503.0,503.0,503.0,506.0,506.0,506.0,506.0,506.0,506.0,506.0,506.0,506.0,506.0,506.0,512.0,512.0,512.0,512.0,512.0,512.0,512.0,512.0,512.0,512.0,512.0,512.0,512.0,512.0,512.0,512.0,512.0,512.0,512.0,512.0,511.0,511.0,511.0,511.0,511.0,511.0,511.0,511.0,511.0,500,500,500,503.0,512.0,512.0
0,12.0,43.0,28.0,503.0,469.0,484.0,502.46666666666664,502.4,505.76666666666665,503.0,503.0,503.0,503.0,503.0,503.0,503.0,503.0,503.0,503.0,503.0,503.0,507.0,507.0,507.0,507.0,507.0,507.0,507.0,507.0,512.0,512.0,512.0,512.0,512.0,512.0,512.0,512.0,512.0,512.0,512.0,512.0,469.0,469.0,469.0,469.0,469.0,469.0,469.0,469.0,511.0,511.0,511.0,511.0,511.0,511.0,511.0,511.0,511.0,511.0,511.0,511.0,484.0,484.0,484.0,484.0,484.0,484.0,484.0,484.0,500,500,500,507.0,512.0,511.0
0,66.0,130.0,53.0,441.0,382.0,484.0,503.8666666666667,476.1333333333333,492.06666666666666,507.0,507.0,507.0,507.0,507.0,507.0,507.0,507.0,507.0,507.0,507.0,507.0,507.0,507.0,507.0,507.0,507.0,507.0,507.0,441.0,469.0,469.0,469.0,469.0,469.0,469.0,469.0,469.0,469.0,469.0,469.0,469.0,469.0,469.0,469.0,469.0,469.0,469.0,469.0,382.0,484.0,484.0,484.0,484.0,484.0,484.0,484.0,484.0,484.0,484.0,484.0,484.0,484.0,484.0,484.0,484.0,484.0,484.0,484.0,537.0,500,500,500,507.0,469.0,537.0
0,66.0,99.0,70.0,441.0,382.0,467.0,469.1666666666667,427.5,507.6666666666667,441.0,441.0,441.0,441.0,441.0,441.0,441.0,441.0,441.0,441.0,441.0,441.0,441.0,441.0,478.0,478.0,478.0,478.0,478.0,478.0,382.0,382.0,382.0,382.0,382.0,382.0,382.0,382.0,382.0,382.0,382.0,382.0,382.0,481.0,481.0,481.0,481.0,481.0,481.0,481.0,537.0,537.0,537.0,537.0,537.0,537.0,537.0,537.0,537.0,537.0,537.0,537.0,537.0,467.0,467.0,467.0,467.0,467.0,467.0,467.0,500,500,500,478.0,481.0,537.0
0,10.0,48.0,33.0,478.0,433.0,467.0,481.0,466.6,476.9,478.0,478.0,478.0,478.0,478.0,478.0,478.0,478.0,478.0,478.0,478.0,488.0,488.0,488.0,488.0,488.0,488.0,488.0,488.0,488.0,481.0,481.0,481.0,481.0,481.0,481.0,481.0,481.0,481.0,481.0,481.0,433.0,433.0,433.0,433.0,433.0,433.0,433.0,433.0,433.0,467.0,467.0,467.0,467.0,467.0,467.0,467.0,467.0,467.0,467.0,467.0,500.0,500.0,500.0,500.0,500.0,500.0,500.0,500.0,500.0,500,500,500,488.0,481.0,500.0
0,61.0,240.0,88.0,427.0,241.0,500.0,483.26666666666665,415.4,504.4,488.0,488.0,488.0,488.0,488.0,488.0,488.0,488.0,488.0,488.0,488.0,488.0,488.0,488.0,488.0,488.0,427.0,427.0,427.0,427.0,433.0,433.0,433.0,433.0,433.0,433.0,433.0,433.0,433.0,433.0,433.0,433.0,433.0,433.0,433.0,433.0,241.0,241.0,241.0,241.0,500.0,500.0,500.0,500.0,500.0,500.0,500.0,500.0,500.0,500.0,500.0,500.0,500.0,500.0,500.0,500.0,555.0,555.0,555.0,555.0,500,500,500,488.0,433.0,555.0
0,61.0,192.0,55.0,427.0,241.0,500.0,459.53333333333336,343.4,525.6666666666666,488.0,488.0,488.0,488.0,488.0,488.0,427.0,427.0,427.0,427.0,427.0,427.0,427.0,427.0,427.0,427.0,427.0,427.0,427.0,427.0,433.0,433.0,433.0,433.0,433.0,433.0,241.0,241.0,241.0,241.0,241.0,241.0,241.0,241.0,241.0,241.0,241.0,241.0,241.0,241.0,500.0,500.0,500.0,500.0,500.0,500.0,555.0,555.0,555.0,555.0,555.0,555.0,555.0,555.0,555.0,555.0,555.0,555.0,555.0,555.0,500,500,500,488.0,433.0,555.0
0,93.0,192.0,55.0,427.0,241.0,506.0,469.3333333333333,323.6666666666667,531.9333333333333,427.0,427.0,427.0,427.0,427.0,427.0,427.0,520.0,520.0,520.0,520.0,520.0,520.0,520.0,520.0,520.0,520.0,520.0,520.0,520.0,241.0,241.0,241.0,241.0,241.0,241.0,241.0,417.0,417.0,417.0,417.0,417.0,417.0,417.0,417.0,417.0,417.0,417.0,417.0,417.0,555.0,555.0,555.0,555.0,555.0,555.0,555.0,506.0,506.0,506.0,506.0,506.0,506.0,506.0,506.0,506.0,506.0,506.0,506.0,506.0,500,500,500,520.0,417.0,555.0
0,93.0,183.0,49.0,495.0,416.0,506.0,491.8333333333333,377.53333333333336,519.3,520.0,520.0,520.0,520.0,520.0,520.0,520.0,520.0,520.0,520.0,520.0,520.0,495.0,495.0,495.0,495.0,495.0,495.0,501.0,501.0,417.0,417.0,417.0,417.0,417.0,417.0,417.0,417.0,417.0,417.0,417.0,417.0,424.0,424.0,424.0,424.0,424.0,424.0,416.0,416.0,506.0,506.0,506.0,506.0,506.0,506.0,506.0,506.0,506.0,506.0,506.0,506.0,509.0,509.0,509.0,509.0,509.0,509.0,541.0,541.0,500,500,500,520.0,424.0,541.0
0,25.0,123.0,35.0,495.0,416.0,509.0,503.26666666666665,434.46666666666664,523.3333333333334,495.0,495.0,501.0,501.0,501.0,501.0,501.0,501.0,501.0,501.0,501.0,501.0,501.0,501.0,500.0,500.0,500.0,500.0,500.0,500.0,424.0,424.0,416.0,416.0,416.0,416.0,416.0,416.0,416.0,416.0,416.0,416.0,416.0,416.0,539.0,539.0,539.0,539.0,539.0,539.0,509.0,509.0,541.0,541.0,541.0,541.0,541.0,541.0,541.0,541.0,541.0,541.0,541.0,541.0,517.0,517.0,517.0,517.0,517.0,517.0,500,500,500,501.0,539.0,541.0
0,2.0,123.0,24.0,500.0,447.0,517.0,500.8333333333333,477.56666666666666,525.2666666666667,500.0,500.0,500.0,500.0,500.0,500.0,500.0,500.0,500.0,500.0,500.0,502.0,502.0,502.0,502.0,502.0,502.0,502.0,502.0,502.0,539.0,539.0,539.0,539.0,539.0,539.0,539.0,539.0,539.0,539.0,539.0,447.0,447.0,447.0,447.0,447.0,447.0,447.0,447.0,447.0,517.0,517.0,517.0,517.0,517.0,517.0,517.0,517.0,517.0,517.0,517.0,521.0,521.0,521.0,521.0,521.0,521.0,521.0,521.0,521.0,500,500,500,502.0,539.0,521.0
0,6.0,92.0,42.0,496.0,447.0,479.0,499.8,472.2,506.6,502.0,502.0,502.0,502.0,502.0,502.0,502.0,496.0,496.0,496.0,496.0,496.0,496.0,496.0,496.0,496.0,496.0,496.0,496.0,496.0,447.0,447.0,447.0,447.0,447.0,447.0,447.0,495.0,495.0,495.0,495.0,495.0,495.0,495.0,495.0,495.0,495.0,495.0,495.0,495.0,521.0,521.0,521.0,521.0,521.0,521.0,521.0,479.0,479.0,479.0,479.0,479.0,479.0,479.0,479.0,479.0,479.0,479.0,479.0,479.0,500,500,500,502.0,495.0,521.0
0,21.0,81.0,43.0,481.0,495.0,479.0,493.4,498.4,490.4,496.0,496.0,496.0,496.0,496.0,496.0,496.0,496.0,496.0,496.0,496.0,496.0,481.0,481.0,481.0,481.0,481.0,481.0,481.0,481.0,495.0,495.0,495.0,495.0,495.0,495.0,495.0,495.0,495.0,495.0,495.0,495.0,528.0,528.0,528.0,528.0,528.0,528.0,528.0,528.0,479.0,479.0,479.0,479.0,479.0,479.0,479.0,479.0,479.0,479.0,479.0,479.0,522.0,522.0,522.0,522.0,522.0,522.0,522.0,522.0,500,500,500,496.0,528.0,522.0
0,24.0,95.0,64.0,481.0,433.0,522.0,486.7,509.8333333333333,517.6333333333333,481.0,481.0,481.0,481.0,481.0,481.0,481.0,481.0,481.0,481.0,481.0,481.0,481.0,481.0,505.0,505.0,505.0,505.0,505.0,505.0,528.0,528.0,528.0,528.0,528.0,528.0,528.0,528.0,528.0,528.0,528.0,528.0,528.0,528.0,433.0,433.0,433.0,433.0,433.0,433.0,522.0,522.0,522.0,522.0,522.0,522.0,522.0,522.0,522.0,522.0,522.0,522.0,522.0,522.0,543.0,543.0,543.0,543.0,543.0,543.0,500,500,500,505.0,528.0,543.0
0,24.0,213.0,54.0,481.0,433.0,489.0,494.3333333333333,485.2,531.0,481.0,481.0,505.0,505.0,505.0,505.0,505.0,505.0,505.0,505.0,505.0,505.0,505.0,505.0,505.0,505.0,505.0,489.0,489.0,489.0,528.0,528.0,433.0,433.0,433.0,433.0,433.0,433.0,433.0,433.0,433.0,433.0,433.0,433.0,433.0,433.0,433.0,646.0,646.0,646.0,522.0,522.0,543.0,543.0,543.0,543.0,543.0,543.0,543.0,543.0,543.0,543.0,543.0,543.0,543.0,543.0,543.0,489.0,489.0,489.0,500,500,500,505.0,646.0,543.0
0,24.0,213.0,54.0,489.0,433.0,489.0,498.26666666666665,516.2666666666667,519.6666666666666,505.0,505.0,505.0,505.0,505.0,489.0,489.0,489.0,489.0,489.0,489.0,489.0,489.0,489.0,499.0,499.0,499.0,499.0,499.0,499.0,433.0,433.0,433.0,433.0,433.0,646.0,646.0,646.0,646.0,646.0,646.0,646.0,646.0,646.0,524.0,524.0,524.0,524.0,524.0,524.0,543.0,543.0,543.0,543.0,543.0,489.0,489.0,489.0,489.0,489.0,489.0,489.0,489.0,489.0,503.0,503.0,503.0,503.0,503.0,503.0,500,500,500,505.0,646.0,543.0
0,39.0,122.0,19.0,499.0,524.0,503.0,501.8,560.9666666666667,501.06666666666666,499.0,499.0,499.0,499.0,499.0,499.0,499.0,499.0,499.0,499.0,528.0,528.0,528.0,528.0,528.0,528.0,528.0,528.0,528.0,528.0,524.0,524.0,524.0,524.0,524.0,524.0,524.0,524.0,524.0,524.0,543.0,543.0,543.0,543.0,543.0,543.0,543.0,543.0,543.0,543.0,503.0,503.0,503.0,503.0,503.0,503.0,503.0,503.0,503.0,503.0,508.0,508.0,508.0,508.0,508.0,508.0,508.0,508.0,508.0,508.0,500,500,500,528.0,543.0,508.0
0,105.0,86.0,88.0,528.0,457.0,508.0,535.2333333333333,529.6333333333333,518.5666666666667,528.0,528.0,528.0,528.0,528.0,528.0,528.0,528.0,528.0,528.0,528.0,528.0,528.0,528.0,604.0,604.0,604.0,604.0,604.0,604.0,543.0,543.0,543.0,543.0,543.0,543.0,543.0,543.0,543.0,543.0,543.0,543.0,543.0,543.0,457.0,457.0,457.0,457.0,457.0,457.0,508.0,508.0,508.0,508.0,508.0,508.0,508.0,508.0,508.0,508.0,508.0,508.0,508.0,508.0,591.0,591.0,591.0,591.0,591.0,591.0,500,500,500,604.0,543.0,591.0
0,76.0,125.0,85.0,548.0,457.0,506.0,581.4666666666667,498.93333333333334,560.0333333333333,604.0,604.0,604.0,604.0,604.0,604.0,604.0,604.0,604.0,604.0,548.0,548.0,548.0,548.0,548.0,548.0,548.0,548.0,548.0,548.0,457.0,457.0,457.0,457.0,457.0,457.0,457.0,457.0,457.0,457.0,582.0,582.0,582.0,582.0,582.0,582.0,582.0,582.0,582.0,582.0,591.0,591.0,591.0,591.0,591.0,591.0,591.0,591.0,591.0,591.0,506.0,506.0,506.0,506.0,506.0,506.0,506.0,506.0,506.0,506.0,500,500,500,604.0,582.0,591.0
0,56.0,125.0,115.0,548.0,536.0,476.0,562.1333333333333,549.7666666666667,523.8333333333334,548.0,548.0,548.0,548.0,548.0,548.0,548.0,548.0,548.0,548.0,548.0,548.0,548.0,548.0,548.0,548.0,548.0,548.0,564.0,564.0,582.0,582.0,582.0,582.0,582.0,582.0,582.0,582.0,582.0,582.0,582.0,582.0,582.0,582.0,582.0,582.0,582.0,582.0,536.0,536.0,506.0,506.0,506.0,506.0,506.0,506.0,506.0,506.0,506.0,506.0,506.0,506.0,506.0,506.0,506.0,506.0,506.0,506.0,476.0,476.0,500,500,500,564.0,582.0,506.0
0,17.0,63.0,51.0,547.0,519.0,455.0,556.4,549.0666666666667,483.2,564.0,564.0,564.0,564.0,564.0,564.0,564.0,564.0,564.0,564.0,564.0,564.0,564.0,564.0,564.0,564.0,547.0,547.0,547.0,547.0,536.0,536.0,536.0,536.0,536.0,536.0,536.0,536.0,536.0,536.0,536.0,536.0,536.0,536.0,536.0,536.0,519.0,519.0,519.0,519.0,476.0,476.0,476.0,476.0,476.0,476.0,476.0,476.0,476.0,476.0,476.0,476.0,476.0,476.0,476.0,476.0,455.0,455.0,455.0,455.0,500,500,500,564.0,536.0,476.0
0,50.0,63.0,104.0,514.0,519.0,455.0,545.5,536.7,482.1,547.0,547.0,547.0,547.0,547.0,547.0,547.0,547.0,547.0,547.0,547.0,547.0,547.0,547.0,514.0,514.0,514.0,514.0,514.0,514.0,519.0,519.0,519.0,519.0,519.0,519.0,519.0,519.0,519.0,519.0,519.0,519.0,519.0,519.0,582.0,582.0,582.0,582.0,582.0,582.0,455.0,455.0,455.0,455.0,455.0,455.0,455.0,455.0,455.0,455.0,455.0,455.0,455.0,455.0,559.0,559.0,559.0,559.0,559.0,559.0,500,500,500,547.0,582.0,559.0
0,91.0,202.0,104.0,456.0,582.0,499.0,509.0,597.2,526.2,514.0,514.0,514.0,514.0,514.0,514.0,514.0,514.0,514.0,514.0,514.0,456.0,456.0,456.0,456.0,456.0,456.0,456.0,456.0,456.0,582.0,582.0,582.0,582.0,582.0,582.0,582.0,582.0,582.0,582.0,582.0,721.0,721.0,721.0,721.0,721.0,721.0,721.0,721.0,721.0,559.0,559.0,559.0,559.0,559.0,559.0,559.0,559.0,559.0,559.0,559.0,499.0,499.0,499.0,499.0,499.0,499.0,499.0,499.0,499.0,500,500,500,514.0,721.0,559.0
0,59.0,124.0,13.0,456.0,686.0,499.0,490.8666666666667,741.3333333333334,504.4,456.0,515.0,515.0,515.0,515.0,515.0,515.0,515.0,515.0,513.0,513.0,513.0,513.0,513.0,513.0,513.0,513.0,513.0,513.0,513.0,721.0,810.0,810.0,810.0,810.0,810.0,810.0,810.0,810.0,686.0,686.0,686.0,686.0,686.0,686.0,686.0,686.0,686.0,686.0,686.0,499.0,512.0,512.0,512.0,512.0,512.0,512.0,512.0,512.0,503.0,503.0,503.0,503.0,503.0,503.0,503.0,503.0,503.0,503.0,503.0,500,500,500,515.0,810.0,512.0
0,56.0,97.0,35.0,513.0,589.0,468.0,518.6,676.3,499.5,513.0,513.0,513.0,513.0,513.0,513.0,513.0,513.0,513.0,513.0,513.0,513.0,513.0,513.0,513.0,569.0,569.0,569.0,569.0,569.0,686.0,686.0,686.0,686.0,686.0,686.0,686.0,686.0,686.0,686.0,686.0,686.0,686.0,686.0,686.0,589.0,589.0,589.0,589.0,589.0,503.0,503.0,503.0,503.0,503.0,503.0,503.0,503.0,503.0,503.0,503.0,503.0,503.0,503.0,503.0,468.0,468.0,468.0,468.0,468.0,500,500,500,569.0,686.0,503.0
0,56.0,97.0,35.0,513.0,589.0,468.0,546.6666666666666,626.7,482.3666666666667,513.0,569.0,569.0,569.0,569.0,569.0,569.0,569.0,569.0,569.0,569.0,569.0,569.0,569.0,569.0,569.0,569.0,542.0,542.0,542.0,686.0,589.0,589.0,589.0,589.0,589.0,589.0,589.0,589.0,589.0,589.0,589.0,589.0,589.0,589.0,589.0,589.0,621.0,621.0,621.0,503.0,468.0,468.0,468.0,468.0,468.0,468.0,468.0,468.0,468.0,468.0,468.0,468.0,468.0,468.0,468.0,468.0,491.0,491.0,491.0,500,500,500,569.0,686.0,503.0
0,67.0,97.0,35.0,502.0,589.0,468.0,555.0,605.5666666666667,477.76666666666665,569.0,569.0,569.0,569.0,569.0,569.0,569.0,542.0,542.0,542.0,542.0,542.0,542.0,542.0,542.0,542.0,542.0,542.0,502.0,502.0,589.0,589.0,589.0,589.0,589.0,589.0,589.0,621.0,621.0,621.0,621.0,621.0,621.0,621.0,621.0,621.0,621.0,621.0,637.0,637.0,468.0,468.0,468.0,468.0,468.0,468.0,468.0,491.0,491.0,491.0,491.0,491.0,491.0,491.0,491.0,491.0,491.0,491.0,473.0,473.0,500,500,500,569.0,637.0,491.0
0,40.0,148.0,47.0,502.0,489.0,473.0,517.7666666666667,570.2,496.3666666666667,502.0,502.0,502.0,502.0,502.0,502.0,523.0,523.0,523.0,523.0,523.0,523.0,523.0,523.0,523.0,523.0,523.0,523.0,523.0,523.0,637.0,637.0,637.0,637.0,637.0,489.0,489.0,489.0,489.0,489.0,489.0,489.0,489.0,489.0,489.0,489.0,489.0,489.0,489.0,489.0,473.0,473.0,473.0,473.0,473.0,520.0,520.0,520.0,520.0,520.0,520.0,520.0,520.0,520.0,520.0,520.0,520.0,520.0,520.0,520.0,500,500,500,523.0,637.0,520.0
0,61.0,128.0,21.0,462.0,442.0,510.0,494.23333333333335,498.76666666666665,520.7,500.0,500.0,500.0,500.0,500.0,500.0,500.0,500.0,500.0,462.0,462.0,462.0,462.0,462.0,462.0,462.0,462.0,462.0,462.0,462.0,442.0,442.0,442.0,442.0,442.0,442.0,442.0,442.0,442.0,570.0,570.0,570.0,570.0,570.0,570.0,570.0,570.0,570.0,570.0,570.0,531.0,531.0,531.0,531.0,531.0,531.0,531.0,531.0,531.0,510.0,510.0,510.0,510.0,510.0,510.0,510.0,510.0,510.0,510.0,510.0,500,500,500,500.0,570.0,531.0
0,58.0,152.0,29.0,462.0,557.0,502.0,480.26666666666665,554.1333333333333,512.9666666666667,462.0,462.0,462.0,462.0,462.0,462.0,476.0,476.0,476.0,476.0,476.0,476.0,476.0,476.0,476.0,520.0,520.0,520.0,520.0,520.0,570.0,570.0,570.0,570.0,570.0,570.0,594.0,594.0,594.0,594.0,594.0,594.0,594.0,594.0,594.0,557.0,557.0,557.0,557.0,557.0,510.0,510.0,510.0,510.0,510.0,510.0,502.0,502.0,502.0,502.0,502.0,502.0,502.0,502.0,502.0,524.0,524.0,524.0,524.0,524.0,500,500,500,520.0,594.0,524.0
0,44.0,43.0,60.0,512.0,551.0,464.0,512.5333333333333,559.3,507.8,520.0,520.0,520.0,520.0,520.0,520.0,520.0,520.0,520.0,520.0,520.0,512.0,512.0,512.0,512.0,512.0,512.0,512.0,512.0,512.0,557.0,557.0,557.0,557.0,557.0,557.0,557.0,557.0,557.0,557.0,557.0,551.0,551.0,551.0,551.0,551.0,551.0,551.0,551.0,551.0,524.0,524.0,524.0,524.0,524.0,524.0,524.0,524.0,524.0,524.0,524.0,464.0,464.0,464.0,464.0,464.0,464.0,464.0,464.0,464.0,500,500,500,520.0,557.0,524.0
0,13.0,42.0,46.0,512.0,526.0,464.0,519.8333333333334,536.5666666666667,488.3333333333333,512.0,525.0,525.0,525.0,525.0,525.0,525.0,525.0,525.0,525.0,525.0,525.0,525.0,525.0,525.0,525.0,525.0,525.0,525.0,513.0,551.0,526.0,526.0,526.0,526.0,526.0,526.0,526.0,526.0,526.0,526.0,526.0,526.0,526.0,526.0,526.0,526.0,526.0,568.0,568.0,464.0,502.0,502.0,502.0,502.0,502.0,502.0,502.0,502.0,502.0,502.0,502.0,502.0,502.0,502.0,502.0,502.0,502.0,510.0,510.0,500,500,500,525.0,568.0,510.0
0,12.0,42.0,8.0,513.0,526.0,502.0,518.6,548.4,506.26666666666665,525.0,525.0,525.0,525.0,513.0,513.0,513.0,513.0,513.0,513.0,513.0,513.0,513.0,513.0,513.0,513.0,513.0,513.0,513.0,513.0,526.0,526.0,526.0,526.0,568.0,568.0,568.0,568.0,568.0,568.0,568.0,568.0,568.0,568.0,568.0,568.0,568.0,568.0,568.0,568.0,502.0,502.0,502.0,502.0,510.0,510.0,510.0,510.0,510.0,510.0,510.0,510.0,510.0,510.0,510.0,510.0,510.0,510.0,510.0,510.0,500,500,500,525.0,568.0,510.0
0,18.0,105.0,22.0,495.0,463.0,510.0,507.2,534.5,517.6666666666666,513.0,513.0,513.0,513.0,513.0,513.0,495.0,495.0,495.0,495.0,495.0,501.0,501.0,501.0,501.0,501.0,501.0,501.0,501.0,501.0,568.0,568.0,568.0,568.0,568.0,568.0,514.0,514.0,514.0,514.0,514.0,463.0,463.0,463.0,463.0,463.0,463.0,463.0,463.0,463.0,510.0,510.0,510.0,510.0,510.0,510.0,532.0,532.0,532.0,532.0,532.0,525.0,525.0,525.0,525.0,525.0,525.0,525.0,525.0,525.0,500,500,500,513.0,568.0,532.0
0,2.0,104.0,15.0,501.0,463.0,510.0,501.93333333333334,511.53333333333336,518.0,501.0,501.0,501.0,501.0,501.0,501.0,503.0,503.0,503.0,503.0,503.0,503.0,503.0,503.0,503.0,503.0,503.0,503.0,503.0,503.0,463.0,463.0,463.0,463.0,463.0,463.0,567.0,567.0,567.0,567.0,567.0,567.0,567.0,567.0,567.0,567.0,567.0,567.0,567.0,567.0,525.0,525.0,525.0,525.0,525.0,525.0,510.0,510.0,510.0,510.0,510.0,510.0,510.0,510.0,510.0,510.0,510.0,510.0,510.0,510.0,500,500,500,503.0,567.0,525.0
0,23.0,82.0,42.0,503.0,485.0,510.0,505.3,558.8,514.2,503.0,503.0,503.0,503.0,503.0,503.0,503.0,503.0,503.0,503.0,503.0,503.0,503.0,503.0,503.0,503.0,503.0,526.0,526.0,526.0,567.0,567.0,567.0,567.0,567.0,567.0,567.0,567.0,567.0,567.0,567.0,567.0,567.0,567.0,567.0,567.0,567.0,485.0,485.0,485.0,510.0,510.0,510.0,510.0,510.0,510.0,510.0,510.0,510.0,510.0,510.0,510.0,510.0,510.0,510.0,510.0,510.0,552.0,552.0,552.0,500,500,500,526.0,567.0,552.0
0,23.0,120.0,58.0,503.0,447.0,494.0,515.6,510.2,523.6,503.0,526.0,526.0,526.0,526.0,526.0,526.0,526.0,526.0,526.0,526.0,520.0,520.0,520.0,520.0,520.0,520.0,520.0,520.0,520.0,567.0,485.0,485.0,485.0,485.0,485.0,485.0,485.0,485.0,485.0,485.0,447.0,447.0,447.0,447.0,447.0,447.0,447.0,447.0,447.0,510.0,552.0,552.0,552.0,552.0,552.0,552.0,552.0,552.0,552.0,552.0,494.0,494.0,494.0,494.0,494.0,494.0,494.0,494.0,494.0,500,500,500,526.0,567.0,552.0
0,49.0,38.0,68.0,477.0,447.0,484.0,511.8,452.1333333333333,495.8666666666667,520.0,520.0,520.0,520.0,520.0,520.0,520.0,520.0,520.0,520.0,520.0,520.0,477.0,477.0,477.0,477.0,477.0,477.0,477.0,477.0,447.0,447.0,447.0,447.0,447.0,447.0,447.0,447.0,447.0,447.0,447.0,447.0,460.0,460.0,460.0,460.0,460.0,460.0,460.0,460.0,494.0,494.0,494.0,494.0,494.0,494.0,494.0,494.0,494.0,494.0,494.0,494.0,484.0,484.0,484.0,484.0,484.0,484.0,484.0,484.0,500,500,500,520.0,460.0,494.0
0,51.0,59.0,27.0,477.0,460.0,484.0,498.6666666666667,465.73333333333335,492.06666666666666,477.0,477.0,477.0,477.0,477.0,477.0,477.0,477.0,477.0,477.0,477.0,477.0,528.0,528.0,528.0,528.0,528.0,528.0,528.0,528.0,460.0,460.0,460.0,460.0,460.0,460.0,460.0,460.0,460.0,460.0,460.0,460.0,506.0,506.0,506.0,506.0,506.0,506.0,506.0,506.0,484.0,484.0,484.0,484.0,484.0,484.0,484.0,484.0,484.0,484.0,484.0,484.0,511.0,511.0,511.0,511.0,511.0,511.0,511.0,511.0,500,500,500,528.0,506.0,511.0
0,51.0,77.0,27.0,493.0,429.0,499.0,513.5666666666667,480.8666666666667,505.1,528.0,528.0,528.0,528.0,528.0,528.0,528.0,528.0,528.0,493.0,493.0,493.0,493.0,493.0,493.0,493.0,493.0,493.0,493.0,493.0,506.0,506.0,506.0,506.0,506.0,506.0,506.0,506.0,506.0,429.0,429.0,429.0,429.0,429.0,429.0,429.0,429.0,429.0,429.0,429.0,511.0,511.0,511.0,511.0,511.0,511.0,511.0,511.0,511.0,499.0,499.0,499.0,499.0,499.0,499.0,499.0,499.0,499.0,499.0,499.0,500,500,500,528.0,506.0,511.0
0,35.0,77.0,12.0,493.0,429.0,499.0,508.1666666666667,462.3666666666667,504.2,528.0,528.0,528.0,493.0,493.0,493.0,493.0,493.0,493.0,493.0,493.0,493.0,493.0,493.0,493.0,493.0,493.0,493.0,493.0,493.0,506.0,506.0,506.0,429.0,429.0,429.0,429.0,429.0,429.0,429.0,429.0,429.0,429.0,429.0,429.0,429.0,429.0,429.0,429.0,429.0,511.0,511.0,511.0,499.0,499.0,499.0,499.0,499.0,499.0,499.0,499.0,499.0,499.0,499.0,499.0,499.0,499.0,499.0,499.0,499.0,500,500,500,528.0,506.0,511.0
0,93.0,77.0,39.0,493.0,429.0,477.0,509.03333333333336,447.56666666666666,502.3666666666667,493.0,493.0,493.0,493.0,493.0,493.0,493.0,493.0,493.0,493.0,493.0,493.0,517.0,517.0,517.0,517.0,517.0,586.0,586.0,586.0,429.0,429.0,429.0,429.0,429.0,429.0,429.0,429.0,429.0,429.0,429.0,429.0,445.0,445.0,445.0,445.0,445.0,475.0,475.0,475.0,499.0,499.0,499.0,499.0,499.0,499.0,499.0,499.0,499.0,499.0,499.0,499.0,516.0,516.0,516.0,516.0,516.0,477.0,477.0,477.0,500,500,500,586.0,475.0,516.0
0,95.0,152.0,39.0,491.0,445.0,477.0,534.0,465.26666666666665,494.3333333333333,517.0,517.0,517.0,517.0,586.0,586.0,586.0,586.0,586.0,586.0,586.0,586.0,586.0,586.0,586.0,586.0,491.0,491.0,491.0,491.0,445.0,445.0,445.0,445.0,475.0,475.0,475.0,475.0,475.0,475.0,475.0,475.0,475.0,475.0,475.0,475.0,581.0,581.0,581.0,581.0,516.0,516.0,516.0,516.0,477.0,477.0,477.0,477.0,477.0,477.0,477.0,477.0,477.0,477.0,477.0,477.0,512.0,512.0,512.0,512.0,500,500,500,586.0,581.0,516.0
0,95.0,106.0,35.0,491.0,528.0,487.0,512.8333333333334,550.9666666666667,500.8333333333333,491.0,491.0,491.0,491.0,491.0,491.0,491.0,491.0,491.0,491.0,491.0,508.0,508.0,508.0,508.0,508.0,508.0,508.0,508.0,508.0,581.0,581.0,581.0,581.0,581.0,581.0,581.0,581.0,581.0,581.0,581.0,528.0,528.0,528.0,528.0,528.0,528.0,528.0,528.0,528.0,512.0,512.0,512.0,512.0,512.0,512.0,512.0,512.0,512.0,512.0,512.0,487.0,487.0,487.0,487.0,487.0,487.0,487.0,487.0,487.0,500,500,500,508.0,581.0,512.0
0,37.0,152.0,54.0,471.0,429.0,487.0,501.1,542.3666666666667,497.1333333333333,508.0,508.0,508.0,508.0,508.0,508.0,508.0,508.0,508.0,508.0,508.0,508.0,508.0,508.0,508.0,508.0,508.0,508.0,508.0,471.0,528.0,528.0,528.0,528.0,528.0,528.0,528.0,528.0,528.0,528.0,528.0,528.0,528.0,528.0,528.0,528.0,528.0,528.0,528.0,429.0,487.0,487.0,487.0,487.0,487.0,487.0,487.0,487.0,487.0,487.0,487.0,487.0,487.0,487.0,487.0,487.0,487.0,487.0,487.0,541.0,500,500,500,508.0,528.0,541.0
0,49.0,99.0,54.0,471.0,429.0,487.0,496.06666666666666,493.3333333333333,506.3666666666667,508.0,508.0,508.0,508.0,508.0,508.0,508.0,508.0,471.0,471.0,471.0,471.0,471.0,471.0,471.0,471.0,471.0,471.0,520.0,520.0,528.0,528.0,528.0,528.0,528.0,528.0,528.0,528.0,429.0,429.0,429.0,429.0,429.0,429.0,429.0,429.0,429.0,429.0,478.0,478.0,487.0,487.0,487.0,487.0,487.0,487.0,487.0,487.0,541.0,541.0,541.0,541.0,541.0,541.0,541.0,541.0,541.0,541.0,528.0,528.0,500,500,500,520.0,528.0,541.0
0,49.0,131.0,47.0,476.0,478.0,494.0,492.43333333333334,496.6333333333333,518.5666666666667,520.0,520.0,520.0,520.0,520.0,520.0,520.0,520.0,476.0,476.0,476.0,476.0,476.0,476.0,476.0,476.0,476.0,476.0,476.0,476.0,478.0,478.0,478.0,478.0,478.0,478.0,478.0,478.0,560.0,560.0,560.0,560.0,560.0,560.0,560.0,560.0,560.0,560.0,560.0,560.0,528.0,528.0,528.0,528.0,528.0,528.0,528.0,528.0,494.0,494.0,494.0,494.0,494.0,494.0,494.0,494.0,494.0,494.0,494.0,494.0,500,500,500,520.0,560.0,528.0
0,44.0,160.0,60.0,476.0,400.0,494.0,493.56666666666666,509.76666666666665,515.5333333333333,476.0,476.0,476.0,476.0,476.0,476.0,476.0,476.0,476.0,476.0,476.0,476.0,476.0,479.0,479.0,502.0,502.0,502.0,502.0,502.0,560.0,560.0,560.0,560.0,560.0,560.0,560.0,560.0,560.0,560.0,560.0,560.0,491.0,491.0,491.0,400.0,400.0,400.0,400.0,400.0,494.0,494.0,494.0,494.0,494.0,494.0,494.0,494.0,494.0,494.0,494.0,494.0,536.0,536.0,536.0,554.0,554.0,554.0,554.0,554.0,500,500,500,502.0,560.0,554.0
0,26.0,160.0,60.0,476.0,400.0,494.0,489.3,473.1,528.2,476.0,476.0,479.0,479.0,502.0,502.0,502.0,502.0,502.0,502.0,502.0,502.0,502.0,502.0,502.0,502.0,502.0,488.0,488.0,488.0,560.0,560.0,491.0,491.0,400.0,400.0,400.0,400.0,400.0,400.0,400.0,400.0,400.0,400.0,400.0,400.0,400.0,566.0,566.0,566.0,494.0,536.0,536.0,536.0,554.0,554.0,554.0,554.0,554.0,554.0,554.0,554.0,554.0,554.0,554.0,554.0,554.0,518.0,518.0,518.0,500,500,500,502.0,560.0,554.0
0,62.0,189.0,84.0,488.0,377.0,518.0,500.0,496.53333333333336,538.8,488.0,488.0,488.0,488.0,488.0,488.0,488.0,488.0,488.0,488.0,488.0,488.0,488.0,488.0,550.0,550.0,550.0,550.0,550.0,550.0,566.0,566.0,566.0,566.0,566.0,566.0,566.0,566.0,566.0,566.0,566.0,566.0,566.0,566.0,377.0,377.0,377.0,377.0,377.0,377.0,518.0,518.0,518.0,518.0,518.0,518.0,518.0,518.0,518.0,518.0,518.0,518.0,518.0,518.0,602.0,602.0,602.0,602.0,602.0,602.0,500,500,500,550.0,566.0,602.0
0,42.0,147.0,103.0,508.0,377.0,499.0,534.6,430.9,564.2333333333333,550.0,550.0,550.0,550.0,550.0,550.0,550.0,550.0,508.0,508.0,508.0,508.0,508.0,508.0,508.0,508.0,508.0,508.0,508.0,508.0,377.0,377.0,377.0,377.0,377.0,377.0,377.0,377.0,524.0,524.0,524.0,524.0,524.0,524.0,524.0,524.0,524.0,524.0,524.0,524.0,602.0,602.0,602.0,602.0,602.0,602.0,602.0,602.0,499.0,499.0,499.0,499.0,499.0,499.0,499.0,499.0,499.0,499.0,499.0,499.0,500,500,500,550.0,524.0,602.0
0,34.0,94.0,3.0,503.0,524.0,499.0,507.43333333333334,573.9333333333333,500.5,508.0,537.0,537.0,503.0,503.0,503.0,503.0,503.0,503.0,503.0,503.0,503.0,503.0,503.0,503.0,503.0,503.0,503.0,503.0,503.0,524.0,568.0,568.0,618.0,618.0,618.0,618.0,618.0,618.0,618.0,618.0,618.0,618.0,618.0,618.0,618.0,618.0,618.0,618.0,618.0,499.0,499.0,499.0,502.0,502.0,502.0,502.0,502.0,502.0,502.0,502.0,502.0,502.0,502.0,502.0,502.0,502.0,502.0,502.0,502.0,500,500,500,537.0,618.0,502.0
0,34.0,113.0,41.0,509.0,505.0,518.0,521.4666666666667,545.7,528.0666666666667,509.0,509.0,509.0,509.0,537.0,537.0,537.0,537.0,537.0,537.0,537.0,537.0,537.0,537.0,537.0,537.0,537.0,537.0,537.0,537.0,505.0,505.0,505.0,505.0,568.0,568.0,568.0,568.0,568.0,568.0,568.0,568.0,568.0,568.0,568.0,568.0,568.0,568.0,568.0,568.0,518.0,518.0,518.0,518.0,543.0,543.0,543.0,543.0,543.0,543.0,543.0,543.0,543.0,543.0,543.0,543.0,543.0,543.0,543.0,543.0,500,500,500,537.0,568.0,543.0
0,81.0,104.0,79.0,456.0,464.0,464.0,522.9666666666667,535.6,527.0666666666667,537.0,537.0,537.0,537.0,537.0,537.0,537.0,537.0,537.0,537.0,537.0,512.0,512.0,512.0,512.0,512.0,456.0,456.0,456.0,456.0,568.0,568.0,568.0,568.0,568.0,568.0,568.0,568.0,568.0,568.0,568.0,464.0,464.0,464.0,464.0,464.0,473.0,473.0,473.0,473.0,543.0,543.0,543.0,543.0,543.0,543.0,543.0,543.0,543.0,543.0,543.0,507.0,507.0,507.0,507.0,507.0,464.0,464.0,464.0,464.0,500,500,500,537.0,568.0,543.0
0,81.0,104.0,79.0,456.0,473.0,464.0,486.9,489.7,487.1,456.0,456.0,456.0,456.0,456.0,456.0,456.0,456.0,456.0,456.0,456.0,456.0,514.0,514.0,514.0,514.0,514.0,514.0,514.0,514.0,473.0,473.0,473.0,473.0,473.0,473.0,473.0,473.0,473.0,473.0,473.0,473.0,518.0,518.0,518.0,518.0,518.0,518.0,518.0,518.0,464.0,464.0,464.0,464.0,464.0,464.0,464.0,464.0,464.0,464.0,464.0,464.0,497.0,497.0,497.0,497.0,497.0,497.0,497.0,497.0,500,500,500,514.0,518.0,497.0
0,58.0,59.0,33.0,507.0,518.0,483.0,497.3666666666667,508.3333333333333,485.8666666666667,514.0,514.0,514.0,514.0,514.0,514.0,514.0,514.0,514.0,514.0,514.0,514.0,514.0,514.0,514.0,507.0,507.0,507.0,507.0,507.0,518.0,518.0,518.0,518.0,518.0,518.0,518.0,518.0,518.0,518.0,518.0,518.0,518.0,518.0,518.0,532.0,532.0,532.0,532.0,532.0,497.0,497.0,497.0,497.0,497.0,497.0,497.0,497.0,497.0,497.0,497.0,497.0,497.0,497.0,483.0,483.0,483.0,483.0,483.0,483.0,500,500,500,514.0,532.0,497.0
0,64.0,153.0,106.0,507.0,379.0,483.0,517.6333333333333,507.4,501.3333333333333,507.0,507.0,507.0,507.0,507.0,507.0,507.0,507.0,507.0,507.0,507.0,507.0,507.0,507.0,571.0,571.0,571.0,571.0,571.0,571.0,532.0,532.0,532.0,532.0,532.0,532.0,532.0,532.0,532.0,532.0,532.0,532.0,532.0,532.0,379.0,379.0,379.0,379.0,379.0,379.0,483.0,483.0,483.0,483.0,483.0,483.0,483.0,483.0,483.0,483.0,483.0,483.0,483.0,483.0,589.0,589.0,589.0,589.0,589.0,589.0,500,500,500,571.0,532.0,589.0
0,101.0,153.0,106.0,470.0,379.0,487.0,529.1333333333333,454.43333333333334,537.2,571.0,571.0,571.0,571.0,571.0,571.0,571.0,571.0,571.0,571.0,470.0,470.0,470.0,470.0,470.0,470.0,470.0,470.0,470.0,470.0,379.0,379.0,379.0,379.0,379.0,379.0,379.0,379.0,379.0,379.0,528.0,528.0,528.0,528.0,528.0,528.0,528.0,528.0,528.0,528.0,589.0,589.0,589.0,589.0,589.0,589.0,589.0,589.0,589.0,487.0,487.0,487.0,487.0,487.0,487.0,487.0,487.0,487.0,487.0,487.0,500,500,500,571.0,528.0,589.0
0,38.0,21.0,8.0,470.0,528.0,487.0,478.8666666666667,532.9,488.8666666666667,470.0,470.0,470.0,470.0,470.0,470.0,470.0,470.0,470.0,470.0,470.0,470.0,470.0,508.0,508.0,508.0,508.0,508.0,508.0,508.0,528.0,528.0,528.0,528.0,528.0,528.0,528.0,528.0,528.0,528.0,528.0,528.0,528.0,549.0,549.0,549.0,549.0,549.0,549.0,549.0,487.0,487.0,487.0,487.0,487.0,487.0,487.0,487.0,487.0,487.0,487.0,487.0,487.0,495.0,495.0,495.0,495.0,495.0,495.0,495.0,500,500,500,508.0,549.0,495.0
0,41.0,178.0,63.0,508.0,371.0,495.0,496.8,530.8333333333334,496.26666666666665,508.0,508.0,508.0,508.0,508.0,508.0,508.0,508.0,508.0,508.0,508.0,508.0,508.0,508.0,508.0,508.0,508.0,511.0,511.0,511.0,549.0,549.0,549.0,549.0,549.0,549.0,549.0,549.0,549.0,549.0,549.0,549.0,549.0,549.0,549.0,549.0,549.0,371.0,371.0,371.0,495.0,495.0,495.0,495.0,495.0,495.0,495.0,495.0,495.0,495.0,495.0,495.0,495.0,495.0,495.0,495.0,495.0,550.0,550.0,550.0,500,500,500,511.0,549.0,550.0
0,5.0,178.0,58.0,506.0,371.0,550.0,509.26666666666665,446.73333333333335,534.0,511.0,511.0,511.0,511.0,511.0,511.0,511.0,511.0,511.0,511.0,511.0,511.0,511.0,511.0,511.0,506.0,506.0,506.0,506.0,506.0,371.0,371.0,371.0,371.0,371.0,371.0,371.0,371.0,371.0,371.0,371.0,371.0,371.0,371.0,371.0,505.0,505.0,505.0,505.0,505.0,550.0,550.0,550.0,550.0,550.0,550.0,550.0,550.0,550.0,550.0,550.0,550.0,550.0,550.0,550.0,553.0,553.0,553.0,553.0,553.0,500,500,500,511.0,505.0,553.0
0,23.0,184.0,109.0,488.0,371.0,444.0,507.23333333333335,457.53333333333336,548.2666666666667,511.0,506.0,506.0,506.0,506.0,506.0,506.0,506.0,506.0,506.0,506.0,506.0,506.0,506.0,506.0,506.0,506.0,506.0,488.0,488.0,371.0,505.0,505.0,505.0,505.0,505.0,505.0,505.0,505.0,505.0,505.0,505.0,505.0,505.0,505.0,505.0,505.0,505.0,555.0,555.0,550.0,553.0,553.0,553.0,553.0,553.0,553.0,553.0,553.0,553.0,553.0,553.0,553.0,553.0,553.0,553.0,553.0,553.0,444.0,444.0,500,500,500,511.0,555.0,553.0
0,43.0,50.0,109.0,488.0,555.0,444.0,509.8666666666667,550.0,469.3666666666667,488.0,488.0,488.0,488.0,488.0,488.0,531.0,531.0,531.0,531.0,531.0,531.0,531.0,531.0,531.0,531.0,531.0,531.0,531.0,531.0,555.0,555.0,555.0,555.0,555.0,555.0,555.0,555.0,555.0,555.0,555.0,555.0,555.0,555.0,555.0,555.0,555.0,555.0,555.0,555.0,444.0,444.0,444.0,444.0,444.0,444.0,475.0,475.0,475.0,475.0,475.0,475.0,475.0,475.0,475.0,475.0,475.0,475.0,475.0,475.0,500,500,500,531.0,555.0,475.0
0,25.0,75.0,48.0,510.0,480.0,475.0,527.7,523.8333333333334,499.4,531.0,535.0,535.0,535.0,535.0,535.0,535.0,535.0,535.0,535.0,535.0,535.0,535.0,510.0,510.0,510.0,510.0,510.0,510.0,510.0,555.0,480.0,480.0,480.0,480.0,480.0,480.0,480.0,480.0,480.0,480.0,480.0,480.0,550.0,550.0,550.0,550.0,550.0,550.0,550.0,475.0,508.0,508.0,508.0,508.0,508.0,508.0,508.0,508.0,508.0,508.0,508.0,508.0,523.0,523.0,523.0,523.0,523.0,523.0,523.0,500,500,500,535.0,555.0,523.0
0,25.0,158.0,62.0,510.0,392.0,523.0,514.5,495.0,538.1666666666666,510.0,510.0,510.0,510.0,510.0,510.0,510.0,510.0,510.0,510.0,521.0,521.0,521.0,521.0,521.0,521.0,521.0,521.0,521.0,521.0,550.0,550.0,550.0,550.0,550.0,550.0,550.0,550.0,550.0,550.0,392.0,392.0,392.0,392.0,392.0,392.0,392.0,392.0,392.0,392.0,523.0,523.0,523.0,523.0,523.0,523.0,523.0,523.0,523.0,523.0,570.0,570.0,570.0,570.0,570.0,570.0,570.0,570.0,570.0,570.0,500,500,500,521.0,550.0,570.0
0,51.0,158.0,62.0,503.0,392.0,508.0,523.2333333333333,450.8666666666667,540.5333333333333,521.0,521.0,521.0,521.0,521.0,521.0,521.0,521.0,521.0,521.0,521.0,554.0,554.0,554.0,554.0,554.0,554.0,503.0,503.0,503.0,392.0,392.0,392.0,392.0,392.0,392.0,392.0,392.0,392.0,392.0,392.0,442.0,442.0,442.0,442.0,442.0,442.0,512.0,512.0,512.0,570.0,570.0,570.0,570.0,570.0,570.0,570.0,570.0,570.0,570.0,570.0,508.0,508.0,508.0,508.0,508.0,508.0,509.0,509.0,509.0,500,500,500,554.0,512.0,570.0
0,59.0,70.0,7.0,495.0,485.0,502.0,503.2,496.53333333333336,506.1333333333333,503.0,503.0,503.0,503.0,503.0,503.0,503.0,503.0,495.0,495.0,495.0,495.0,495.0,495.0,495.0,495.0,495.0,495.0,495.0,495.0,512.0,512.0,512.0,512.0,512.0,512.0,512.0,512.0,485.0,485.0,485.0,485.0,485.0,485.0,485.0,485.0,485.0,485.0,485.0,485.0,509.0,509.0,509.0,509.0,509.0,509.0,509.0,509.0,502.0,502.0,502.0,502.0,502.0,502.0,502.0,502.0,502.0,502.0,502.0,502.0,500,500,500,503.0,512.0,509.0
0,44.0,94.0,17.0,476.0,485.0,497.0,501.56666666666666,513.6666666666666,505.5,495.0,495.0,495.0,495.0,495.0,495.0,495.0,495.0,495.0,520.0,520.0,520.0,520.0,520.0,520.0,476.0,476.0,476.0,476.0,476.0,485.0,485.0,485.0,485.0,485.0,485.0,485.0,485.0,485.0,579.0,579.0,579.0,579.0,579.0,579.0,539.0,539.0,539.0,539.0,539.0,502.0,502.0,502.0,502.0,502.0,502.0,502.0,502.0,502.0,514.0,514.0,514.0,514.0,514.0,514.0,497.0,497.0,497.0,497.0,497.0,500,500,500,520.0,579.0,514.0
0,44.0,40.0,43.0,476.0,539.0,471.0,490.93333333333334,551.0,489.46666666666664,476.0,476.0,476.0,476.0,476.0,476.0,476.0,476.0,512.0,512.0,512.0,512.0,512.0,512.0,512.0,512.0,512.0,512.0,512.0,512.0,539.0,539.0,539.0,539.0,539.0,539.0,539.0,539.0,567.0,567.0,567.0,567.0,567.0,567.0,567.0,567.0,567.0,567.0,567.0,567.0,497.0,497.0,497.0,497.0,497.0,497.0,497.0,497.0,471.0,471.0,471.0,471.0,471.0,471.0,471.0,471.0,471.0,471.0,471.0,471.0,500,500,500,512.0,567.0,497.0
0,24.0,26.0,21.0,512.0,567.0,471.0,518.4,573.9333333333333,476.6,512.0,512.0,512.0,512.0,512.0,512.0,512.0,512.0,512.0,512.0,512.0,536.0,536.0,536.0,536.0,536.0,536.0,536.0,536.0,511.0,567.0,567.0,567.0,567.0,567.0,567.0,567.0,567.0,567.0,567.0,567.0,593.0,593.0,593.0,593.0,593.0,593.0,593.0,593.0,537.0,471.0,471.0,471.0,471.0,471.0,471.0,471.0,471.0,471.0,471.0,471.0,492.0,492.0,492.0,492.0,492.0,492.0,492.0,492.0,489.0,500,500,500,536.0,593.0,492.0
0,25.0,58.0,52.0,511.0,535.0,489.0,518.2,561.8,486.06666666666666,536.0,536.0,536.0,536.0,536.0,536.0,536.0,536.0,511.0,511.0,511.0,511.0,511.0,511.0,511.0,511.0,511.0,511.0,514.0,514.0,593.0,593.0,593.0,593.0,593.0,593.0,593.0,593.0,537.0,537.0,537.0,537.0,537.0,537.0,537.0,537.0,537.0,537.0,535.0,535.0,492.0,492.0,492.0,492.0,492.0,492.0,492.0,492.0,489.0,489.0,489.0,489.0,489.0,489.0,489.0,489.0,489.0,489.0,523.0,523.0,500,500,500,536.0,593.0,523.0
0,19.0,95.0,34.0,514.0,442.0,510.0,514.6,526.3666666666667,510.3666666666667,514.0,514.0,514.0,514.0,514.0,514.0,514.0,514.0,514.0,514.0,514.0,514.0,514.0,514.0,514.0,514.0,514.0,530.0,530.0,530.0,535.0,535.0,535.0,535.0,535.0,535.0,535.0,535.0,535.0,535.0,535.0,535.0,535.0,535.0,535.0,535.0,535.0,442.0,442.0,442.0,523.0,523.0,523.0,523.0,523.0,523.0,523.0,523.0,523.0,523.0,523.0,523.0,523.0,523.0,523.0,523.0,523.0,510.0,510.0,510.0,500,500,500,530.0,535.0,523.0
0,19.0,95.0,34.0,514.0,442.0,510.0,520.3,497.8666666666667,516.6666666666666,514.0,514.0,514.0,514.0,514.0,514.0,514.0,514.0,530.0,530.0,530.0,530.0,530.0,530.0,530.0,530.0,530.0,530.0,530.0,530.0,535.0,535.0,535.0,535.0,535.0,535.0,535.0,535.0,442.0,442.0,442.0,442.0,442.0,442.0,442.0,442.0,442.0,442.0,442.0,442.0,523.0,523.0,523.0,523.0,523.0,523.0,523.0,523.0,510.0,510.0,510.0,510.0,510.0,510.0,510.0,510.0,510.0,510.0,510.0,510.0,500,500,500,530.0,535.0,523.0
0,18.0,70.0,41.0,512.0,484.0,481.0,519.3333333333334,488.6666666666667,500.46666666666664,520.0,520.0,520.0,520.0,520.0,520.0,520.0,520.0,520.0,520.0,512.0,512.0,512.0,512.0,512.0,512.0,512.0,512.0,512.0,512.0,512.0,512.0,512.0,512.0,512.0,512.0,512.0,512.0,512.0,512.0,484.0,484.0,484.0,484.0,484.0,484.0,484.0,484.0,484.0,484.0,481.0,481.0,481.0,481.0,481.0,481.0,481.0,481.0,481.0,481.0,522.0,522.0,522.0,522.0,522.0,522.0,522.0,522.0,522.0,522.0,500,500,500,520.0,512.0,522.0
0,27.0,58.0,41.0,494.0,454.0,512.0,513.9333333333333,475.0,511.03333333333336,512.0,512.0,512.0,512.0,512.0,512.0,521.0,521.0,521.0,521.0,521.0,521.0,521.0,521.0,521.0,521.0,494.0,494.0,494.0,494.0,484.0,484.0,484.0,484.0,484.0,484.0,455.0,455.0,455.0,455.0,455.0,455.0,455.0,455.0,455.0,455.0,454.0,454.0,454.0,454.0,522.0,522.0,522.0,522.0,522.0,522.0,512.0,512.0,512.0,512.0,512.0,512.0,512.0,512.0,512.0,512.0,516.0,516.0,516.0,516.0,500,500,500,521.0,484.0,522.0
0,61.0,87.0,50.0,494.0,454.0,472.0,508.03333333333336,462.23333333333335,514.2,521.0,521.0,521.0,494.0,494.0,494.0,494.0,494.0,494.0,494.0,494.0,494.0,494.0,494.0,494.0,555.0,555.0,555.0,555.0,555.0,455.0,455.0,455.0,454.0,454.0,454.0,454.0,454.0,454.0,454.0,454.0,454.0,454.0,454.0,454.0,541.0,541.0,541.0,541.0,541.0,512.0,512.0,512.0,516.0,516.0,516.0,516.0,516.0,516.0,516.0,516.0,516.0,516.0,516.0,516.0,472.0,472.0,472.0,472.0,472.0,500,500,500,555.0,541.0,516.0
0,61.0,87.0,44.0,502.0,506.0,472.0,530.0,522.9333333333333,487.3333333333333,555.0,555.0,555.0,555.0,555.0,555.0,555.0,502.0,502.0,502.0,502.0,502.0,502.0,502.0,502.0,502.0,502.0,502.0,502.0,502.0,541.0,541.0,541.0,541.0,541.0,541.0,541.0,506.0,506.0,506.0,506.0,506.0,506.0,506.0,506.0,506.0,506.0,506.0,506.0,506.0,472.0,472.0,472.0,472.0,472.0,472.0,472.0,504.0,504.0,504.0,504.0,504.0,504.0,504.0,504.0,504.0,504.0,504.0,504.0,504.0,500,500,500,555.0,541.0,504.0
0,35.0,182.0,97.0,467.0,478.0,454.0,486.8666666666667,556.0,515.7666666666667,502.0,502.0,502.0,480.0,480.0,480.0,480.0,480.0,480.0,474.0,474.0,474.0,474.0,474.0,474.0,474.0,474.0,474.0,467.0,467.0,506.0,506.0,506.0,478.0,478.0,478.0,478.0,478.0,478.0,660.0,660.0,660.0,660.0,660.0,660.0,660.0,660.0,660.0,647.0,647.0,504.0,504.0,504.0,509.0,509.0,509.0,509.0,509.0,509.0,551.0,551.0,551.0,551.0,551.0,551.0,551.0,551.0,551.0,454.0,454.0,500,500,500,502.0,660.0,551.0
0,52.0,48.0,97.0,467.0,647.0,454.0,488.96666666666664,668.3666666666667,500.1666666666667,467.0,467.0,467.0,467.0,467.0,467.0,467.0,519.0,519.0,519.0,519.0,519.0,519.0,519.0,519.0,519.0,519.0,519.0,519.0,519.0,647.0,647.0,647.0,647.0,647.0,647.0,647.0,695.0,695.0,695.0,695.0,695.0,695.0,695.0,695.0,695.0,695.0,695.0,695.0,695.0,454.0,454.0,454.0,454.0,454.0,454.0,454.0,529.0,529.0,529.0,529.0,529.0,529.0,529.0,529.0,529.0,529.0,529.0,529.0,529.0,500,500,500,519.0,695.0,529.0
0,15.0,13.0,19.0,504.0,682.0,529.0,511.0,688.0666666666667,539.1333333333333,519.0,519.0,519.0,519.0,504.0,504.0,504.0,504.0,504.0,504.0,504.0,504.0,504.0,504.0,504.0,504.0,504.0,504.0,504.0,504.0,695.0,695.0,695.0,695.0,682.0,682.0,682.0,682.0,682.0,682.0,682.0,682.0,682.0,682.0,682.0,682.0,682.0,682.0,682.0,682.0,529.0,529.0,529.0,529.0,548.0,548.0,548.0,548.0,548.0,548.0,548.0,548.0,548.0,548.0,548.0,548.0,548.0,548.0,548.0,548.0,500,500,500,519.0,695.0,548.0
0,37.0,68.0,72.0,483.0,655.0,476.0,500.2,689.3666666666667,512.5333333333333,504.0,504.0,504.0,483.0,483.0,483.0,483.0,483.0,483.0,483.0,483.0,520.0,520.0,520.0,520.0,520.0,520.0,520.0,520.0,520.0,682.0,682.0,723.0,723.0,723.0,723.0,723.0,723.0,723.0,723.0,723.0,655.0,655.0,655.0,655.0,655.0,655.0,655.0,655.0,655.0,548.0,548.0,492.0,492.0,492.0,492.0,492.0,492.0,492.0,492.0,492.0,476.0,476.0,476.0,476.0,476.0,476.0,476.0,476.0,476.0,500,500,500,520.0,723.0,548.0
0,79.0,121.0,48.0,499.0,655.0,476.0,518.8,683.4333333333333,494.4,520.0,520.0,520.0,520.0,520.0,520.0,520.0,499.0,499.0,499.0,499.0,499.0,499.0,499.0,499.0,578.0,578.0,578.0,578.0,578.0,655.0,655.0,655.0,655.0,655.0,655.0,655.0,704.0,704.0,704.0,704.0,704.0,704.0,704.0,704.0,776.0,776.0,776.0,776.0,776.0,476.0,476.0,476.0,476.0,476.0,476.0,476.0,524.0,524.0,524.0,524.0,524.0,524.0,524.0,524.0,500.0,500.0,500.0,500.0,500.0,500,500,500,578.0,776.0,524.0
0,79.0,103.0,8.0,531.0,776.0,492.0,565.4666666666667,803.4666666666667,497.8666666666667,578.0,578.0,578.0,578.0,578.0,578.0,578.0,578.0,578.0,578.0,531.0,531.0,531.0,531.0,531.0,531.0,531.0,531.0,531.0,531.0,776.0,776.0,776.0,776.0,776.0,776.0,776.0,776.0,776.0,776.0,879.0,879.0,879.0,879.0,879.0,879.0,879.0,879.0,879.0,879.0,500.0,500.0,500.0,500.0,500.0,500.0,500.0,500.0,500.0,500.0,492.0,492.0,492.0,492.0,492.0,492.0,492.0,492.0,492.0,492.0,500,500,500,578.0,879.0,500.0
0,46.0,210.0,75.0,494.0,782.0,492.0,521.0666666666667,890.8,519.4,531.0,531.0,540.0,540.0,540.0,540.0,540.0,540.0,540.0,540.0,494.0,494.0,494.0,494.0,494.0,494.0,494.0,494.0,494.0,494.0,879.0,879.0,782.0,782.0,782.0,782.0,782.0,782.0,782.0,782.0,992.0,992.0,992.0,992.0,992.0,992.0,992.0,992.0,992.0,992.0,492.0,492.0,501.0,501.0,501.0,501.0,501.0,501.0,501.0,567.0,567.0,567.0,567.0,567.0,567.0,567.0,567.0,567.0,567.0,567.0,500,500,500,540.0,992.0,567.0
0,38.0,644.0,96.0,490.0,348.0,471.0,496.53333333333336,646.5333333333333,510.73333333333335,494.0,490.0,490.0,490.0,490.0,490.0,490.0,490.0,490.0,490.0,490.0,490.0,490.0,490.0,490.0,490.0,528.0,528.0,528.0,528.0,992.0,348.0,348.0,348.0,348.0,348.0,348.0,348.0,348.0,348.0,348.0,348.0,348.0,348.0,348.0,348.0,816.0,816.0,816.0,816.0,567.0,471.0,471.0,471.0,471.0,471.0,471.0,471.0,471.0,471.0,471.0,471.0,471.0,471.0,471.0,471.0,505.0,505.0,505.0,505.0,500,500,500,528.0,992.0,567.0
0,56.0,657.0,44.0,528.0,816.0,505.0,520.3333333333334,719.4,497.73333333333335,528.0,528.0,528.0,528.0,528.0,528.0,528.0,528.0,528.0,528.0,528.0,528.0,528.0,528.0,528.0,528.0,546.0,546.0,546.0,546.0,816.0,816.0,816.0,816.0,816.0,816.0,816.0,816.0,816.0,816.0,816.0,816.0,816.0,816.0,816.0,816.0,1005.0,1005.0,1005.0,1005.0,505.0,505.0,505.0,505.0,505.0,505.0,505.0,505.0,505.0,505.0,505.0,505.0,505.0,505.0,505.0,505.0,515.0,515.0,515.0,515.0,500,500,500,546.0,1005.0,515.0
0,40.0,16.0,5.0,506.0,1005.0,515.0,531.3333333333334,1010.8666666666667,516.8333333333334,546.0,546.0,546.0,546.0,546.0,546.0,546.0,546.0,506.0,506.0,506.0,506.0,506.0,506.0,506.0,506.0,506.0,506.0,506.0,506.0,1005.0,1005.0,1005.0,1005.0,1005.0,1005.0,1005.0,1005.0,1021.0,1021.0,1021.0,1021.0,1021.0,1021.0,1021.0,1021.0,1021.0,1021.0,1021.0,1021.0,515.0,515.0,515.0,515.0,515.0,515.0,515.0,515.0,520.0,520.0,520.0,520.0,520.0,520.0,520.0,520.0,520.0,520.0,520.0,520.0,500,500,500,546.0,1021.0,520.0
0,66.0,188.0,102.0,461.0,833.0,467.0,503.1,904.8666666666667,510.1,527.0,527.0,527.0,527.0,527.0,527.0,527.0,527.0,527.0,527.0,527.0,461.0,461.0,461.0,461.0,461.0,461.0,461.0,461.0,461.0,833.0,833.0,833.0,833.0,833.0,833.0,833.0,833.0,833.0,833.0,833.0,891.0,891.0,891.0,891.0,891.0,891.0,891.0,891.0,891.0,467.0,467.0,467.0,467.0,467.0,467.0,467.0,467.0,467.0,467.0,467.0,569.0,569.0,569.0,569.0,569.0,569.0,569.0,569.0,569.0,500,500,500,527.0,891.0,569.0
0,66.0,455.0,102.0,461.0,436.0,510.0,477.2,779.0666666666667,545.1666666666666,461.0,461.0,461.0,461.0,461.0,461.0,461.0,496.0,496.0,496.0,496.0,496.0,496.0,496.0,496.0,496.0,496.0,496.0,496.0,496.0,891.0,891.0,891.0,891.0,891.0,891.0,891.0,868.0,868.0,868.0,868.0,868.0,436.0,436.0,436.0,436.0,436.0,436.0,436.0,436.0,569.0,569.0,569.0,569.0,569.0,569.0,569.0,529.0,529.0,529.0,529.0,529.0,510.0,510.0,510.0,510.0,510.0,510.0,510.0,510.0,500,500,500,496.0,891.0,569.0
0,0.0,358.0,24.0,496.0,78.0,486.0,496.0,280.8666666666667,499.6,496.0,496.0,496.0,496.0,496.0,496.0,496.0,496.0,496.0,496.0,496.0,496.0,496.0,496.0,496.0,496.0,496.0,496.0,496.0,496.0,436.0,436.0,436.0,436.0,436.0,78.0,78.0,78.0,78.0,78.0,78.0,78.0,78.0,78.0,78.0,78.0,78.0,78.0,78.0,78.0,510.0,510.0,510.0,510.0,510.0,486.0,486.0,486.0,486.0,486.0,486.0,486.0,486.0,486.0,486.0,486.0,486.0,486.0,486.0,486.0,500,500,500,496.0,436.0,510.0
0,43.0,78.0,33.0,496.0,0.0,486.0,512.4666666666667,41.733333333333334,495.06666666666666,496.0,496.0,496.0,496.0,496.0,496.0,539.0,539.0,539.0,539.0,539.0,539.0,539.0,539.0,539.0,512.0,512.0,512.0,512.0,512.0,78.0,78.0,78.0,78.0,78.0,78.0,0.0,0.0,0.0,0.0,0.0,0.0,0.0,0.0,0.0,1.0,1.0,1.0,1.0,1.0,486.0,486.0,486.0,486.0,486.0,486.0,500.0,500.0,500.0,500.0,500.0,500.0,500.0,500.0,500.0,519.0,519.0,519.0,519.0,519.0,500,500,500,539.0,78.0,519.0
0,27.0,259.0,25.0,512.0,1.0,519.0,521.1,26.466666666666665,513.2666666666667,512.0,512.0,512.0,512.0,512.0,512.0,512.0,512.0,512.0,512.0,512.0,512.0,512.0,512.0,512.0,512.0,513.0,513.0,513.0,513.0,1.0,1.0,1.0,1.0,1.0,1.0,1.0,1.0,1.0,1.0,1.0,1.0,1.0,1.0,1.0,1.0,259.0,259.0,259.0,259.0,519.0,519.0,519.0,519.0,519.0,519.0,519.0,519.0,519.0,519.0,519.0,519.0,519.0,519.0,519.0,519.0,525.0,525.0,525.0,525.0,500,500,500,513.0,259.0,525.0
0,38.0,258.0,16.0,513.0,226.0,509.0,517.6666666666666,185.8,521.2666666666667,513.0,513.0,513.0,513.0,513.0,513.0,513.0,513.0,513.0,513.0,513.0,513.0,513.0,550.0,550.0,550.0,550.0,550.0,550.0,550.0,259.0,259.0,259.0,259.0,259.0,259.0,259.0,259.0,259.0,259.0,259.0,259.0,259.0,226.0,226.0,226.0,226.0,226.0,226.0,226.0,525.0,525.0,525.0,525.0,525.0,525.0,525.0,525.0,525.0,525.0,525.0,525.0,525.0,509.0,509.0,509.0,509.0,509.0,509.0,509.0,500,500,500,550.0,259.0,525.0
0,53.0,230.0,16.0,497.0,29.0,509.0,532.9,224.96666666666667,514.8666666666667,513.0,550.0,550.0,550.0,550.0,550.0,550.0,550.0,550.0,550.0,550.0,550.0,550.0,550.0,550.0,550.0,550.0,497.0,497.0,497.0,259.0,226.0,226.0,226.0,226.0,226.0,226.0,226.0,226.0,226.0,226.0,226.0,226.0,226.0,226.0,226.0,226.0,29.0,29.0,29.0,525.0,509.0,509.0,509.0,509.0,509.0,509.0,509.0,509.0,509.0,509.0,509.0,509.0,509.0,509.0,509.0,509.0,509.0,509.0,509.0,500,500,500,550.0,259.0,525.0
0,75.0,994.0,13.0,475.0,29.0,509.0,521.0,154.06666666666666,509.43333333333334,550.0,550.0,550.0,550.0,497.0,497.0,497.0,497.0,497.0,497.0,497.0,497.0,497.0,497.0,497.0,497.0,497.0,497.0,475.0,475.0,226.0,226.0,226.0,226.0,29.0,29.0,29.0,29.0,29.0,29.0,29.0,29.0,29.0,29.0,29.0,29.0,29.0,29.0,1023.0,1023.0,509.0,509.0,509.0,509.0,509.0,509.0,509.0,509.0,509.0,509.0,509.0,509.0,509.0,509.0,509.0,509.0,509.0,509.0,522.0,522.0,500,500,500,550.0,1023.0,522.0
0,47.0,994.0,105.0,450.0,29.0,509.0,478.06666666666666,658.5333333333333,535.6333333333333,497.0,475.0,475.0,475.0,475.0,475.0,475.0,475.0,475.0,475.0,475.0,475.0,475.0,450.0,450.0,450.0,450.0,450.0,450.0,450.0,29.0,1023.0,1023.0,1023.0,1023.0,1023.0,1023.0,1023.0,1023.0,1023.0,1023.0,1023.0,1023.0,1023.0,1023.0,1023.0,1023.0,1023.0,1023.0,1023.0,509.0,522.0,522.0,522.0,522.0,522.0,522.0,522.0,522.0,522.0,522.0,522.0,522.0,614.0,614.0,614.0,614.0,614.0,614.0,614.0,500,500,500,497.0,1023.0,614.0
0,165.0,2.0,135.0,450.0,1021.0,614.0,494.8333333333333,1022.4666666666667,622.4,450.0,450.0,450.0,450.0,450.0,450.0,450.0,450.0,450.0,615.0,615.0,615.0,615.0,615.0,615.0,615.0,615.0,615.0,615.0,615.0,1023.0,1023.0,1023.0,1023.0,1023.0,1023.0,1023.0,1023.0,1023.0,1021.0,1021.0,1021.0,1021.0,1021.0,1021.0,1021.0,1021.0,1021.0,1021.0,1021.0,614.0,614.0,614.0,614.0,614.0,614.0,614.0,614.0,614.0,657.0,657.0,657.0,657.0,657.0,657.0,657.0,657.0,657.0,657.0,657.0,500,500,500,615.0,1023.0,657.0
0,145.0,1.0,80.0,615.0,1021.0,577.0,692.3333333333334,1021.5333333333333,614.3333333333334,615.0,615.0,615.0,615.0,760.0,760.0,760.0,760.0,760.0,760.0,760.0,760.0,760.0,760.0,760.0,760.0,760.0,760.0,760.0,760.0,1021.0,1021.0,1021.0,1021.0,1022.0,1022.0,1022.0,1022.0,1022.0,1022.0,1022.0,1022.0,1022.0,1022.0,1022.0,1022.0,1022.0,1022.0,1022.0,1022.0,657.0,657.0,657.0,657.0,577.0,577.0,577.0,577.0,577.0,577.0,577.0,577.0,577.0,577.0,577.0,577.0,577.0,577.0,577.0,577.0,500,500,500,760.0,1022.0,657.0
0,276.0,1022.0,56.0,484.0,0.0,521.0,622.6,477.53333333333336,547.1333333333333,760.0,760.0,760.0,760.0,526.0,526.0,526.0,526.0,526.0,526.0,526.0,484.0,484.0,484.0,484.0,484.0,484.0,484.0,484.0,484.0,1022.0,1022.0,1022.0,1022.0,0.0,0.0,0.0,0.0,0.0,0.0,2.0,2.0,2.0,2.0,2.0,2.0,2.0,2.0,2.0,2.0,577.0,577.0,577.0,577.0,521.0,521.0,521.0,521.0,521.0,521.0,521.0,521.0,521.0,521.0,521.0,521.0,521.0,521.0,521.0,521.0,500,500,500,760.0,1022.0,577.0
0,24.0,2.0,70.0,460.0,0.0,488.0,473.6666666666667,0.6,537.5666666666667,470.0,470.0,470.0,470.0,470.0,470.0,470.0,470.0,470.0,470.0,470.0,470.0,470.0,470.0,470.0,470.0,460.0,460.0,460.0,460.0,0.0,0.0,0.0,0.0,0.0,0.0,0.0,0.0,0.0,0.0,0.0,0.0,0.0,0.0,0.0,0.0,0.0,0.0,0.0,0.0,558.0,558.0,558.0,558.0,558.0,558.0,558.0,558.0,558.0,558.0,558.0,558.0,558.0,558.0,558.0,558.0,488.0,488.0,488.0,488.0,500,500,500,470.0,0.0,558.0
0,24.0,2.0,70.0,460.0,0.0,488.0,465.6666666666667,0.0,527.6666666666666,470.0,470.0,470.0,470.0,470.0,470.0,470.0,460.0,460.0,460.0,460.0,460.0,460.0,460.0,460.0,460.0,460.0,460.0,460.0,460.0,0.0,0.0,0.0,0.0,0.0,0.0,0.0,0.0,0.0,0.0,0.0,0.0,0.0,0.0,0.0,0.0,0.0,0.0,0.0,0.0,558.0,558.0,558.0,558.0,558.0,558.0,558.0,488.0,488.0,488.0,488.0,488.0,488.0,488.0,488.0,488.0,488.0,488.0,488.0,488.0,500,500,500,470.0,0.0,558.0
0,69.0,1022.0,141.0,401.0,0.0,417.0,446.7,328.23333333333335,475.3,460.0,460.0,460.0,460.0,460.0,460.0,460.0,460.0,460.0,401.0,401.0,401.0,401.0,401.0,441.0,441.0,441.0,441.0,441.0,441.0,0.0,0.0,0.0,0.0,0.0,0.0,0.0,0.0,0.0,1022.0,1022.0,1022.0,1022.0,1022.0,743.0,743.0,743.0,743.0,743.0,743.0,488.0,488.0,488.0,488.0,488.0,488.0,488.0,488.0,488.0,417.0,417.0,417.0,417.0,417.0,427.0,427.0,427.0,427.0,427.0,427.0,500,500,500,460.0,1022.0,488.0
0,118.0,928.0,125.0,441.0,94.0,427.0,449.93333333333334,659.7,448.3333333333333,441.0,441.0,441.0,441.0,441.0,441.0,441.0,441.0,441.0,441.0,441.0,441.0,519.0,519.0,519.0,519.0,519.0,519.0,519.0,519.0,743.0,743.0,743.0,743.0,743.0,743.0,743.0,743.0,743.0,743.0,743.0,743.0,94.0,94.0,94.0,94.0,94.0,94.0,94.0,94.0,427.0,427.0,427.0,427.0,427.0,427.0,427.0,427.0,427.0,427.0,427.0,427.0,542.0,542.0,542.0,542.0,542.0,542.0,542.0,542.0,500,500,500,519.0,743.0,542.0
0,78.0,743.0,115.0,504.0,0.0,508.0,501.5,173.96666666666667,512.6333333333333,519.0,519.0,519.0,519.0,519.0,519.0,519.0,519.0,519.0,519.0,519.0,504.0,504.0,504.0,504.0,504.0,504.0,504.0,504.0,504.0,94.0,94.0,94.0,94.0,94.0,94.0,94.0,94.0,94.0,94.0,94.0,0.0,0.0,0.0,0.0,0.0,0.0,0.0,0.0,0.0,542.0,542.0,542.0,542.0,542.0,542.0,542.0,542.0,542.0,542.0,542.0,508.0,508.0,508.0,508.0,508.0,508.0,508.0,508.0,508.0,500,500,500,519.0,94.0,542.0
0,69.0,94.0,227.0,504.0,0.0,315.0,535.6,3.1333333333333333,426.8,504.0,531.0,531.0,531.0,531.0,531.0,531.0,531.0,531.0,531.0,573.0,573.0,573.0,573.0,573.0,573.0,573.0,573.0,573.0,573.0,0.0,0.0,0.0,0.0,0.0,0.0,0.0,0.0,0.0,0.0,0.0,0.0,0.0,0.0,0.0,0.0,0.0,0.0,0.0,0.0,508.0,448.0,448.0,448.0,448.0,448.0,448.0,448.0,448.0,448.0,315.0,315.0,315.0,315.0,315.0,315.0,315.0,315.0,315.0,315.0,500,500,500,573.0,0.0,508.0
0,106.0,71.0,230.0,467.0,0.0,315.0,545.7666666666667,11.833333333333334,400.23333333333335,573.0,573.0,573.0,573.0,573.0,573.0,573.0,573.0,556.0,556.0,556.0,556.0,556.0,556.0,556.0,467.0,467.0,467.0,467.0,467.0,0.0,0.0,0.0,0.0,0.0,0.0,0.0,0.0,0.0,0.0,0.0,0.0,0.0,0.0,0.0,71.0,71.0,71.0,71.0,71.0,315.0,315.0,315.0,315.0,315.0,315.0,315.0,315.0,545.0,545.0,545.0,545.0,545.0,545.0,545.0,398.0,398.0,398.0,398.0,398.0,500,500,500,573.0,71.0,545.0
0,89.0,320.0,147.0,467.0,71.0,398.0,475.23333333333335,91.16666666666667,413.3,467.0,467.0,467.0,467.0,467.0,467.0,467.0,467.0,467.0,467.0,467.0,467.0,467.0,467.0,467.0,467.0,467.0,490.0,490.0,490.0,71.0,71.0,71.0,71.0,71.0,71.0,71.0,71.0,71.0,71.0,71.0,71.0,71.0,71.0,71.0,71.0,71.0,320.0,320.0,320.0,398.0,398.0,398.0,398.0,398.0,398.0,398.0,398.0,398.0,398.0,398.0,398.0,398.0,398.0,398.0,398.0,398.0,453.0,453.0,453.0,500,500,500,490.0,320.0,453.0
0,23.0,320.0,55.0,467.0,0.0,429.0,482.3333333333333,227.53333333333333,438.8,490.0,490.0,490.0,490.0,490.0,490.0,490.0,490.0,490.0,490.0,490.0,490.0,490.0,490.0,490.0,467.0,467.0,467.0,467.0,467.0,320.0,320.0,320.0,320.0,320.0,320.0,320.0,320.0,320.0,320.0,320.0,320.0,320.0,320.0,320.0,0.0,0.0,0.0,0.0,0.0,453.0,453.0,453.0,453.0,453.0,453.0,453.0,453.0,453.0,453.0,453.0,453.0,453.0,453.0,453.0,429.0,429.0,429.0,429.0,429.0,500,500,500,490.0,320.0,453.0
0,98.0,320.0,200.0,467.0,0.0,429.0,485.23333333333335,117.33333333333333,457.8,490.0,467.0,467.0,467.0,467.0,467.0,467.0,467.0,467.0,467.0,467.0,467.0,467.0,467.0,467.0,467.0,467.0,565.0,565.0,565.0,320.0,0.0,0.0,0.0,0.0,0.0,0.0,0.0,0.0,0.0,0.0,0.0,0.0,0.0,0.0,0.0,0.0,0.0,0.0,0.0,453.0,429.0,429.0,429.0,429.0,429.0,429.0,429.0,429.0,429.0,429.0,429.0,429.0,429.0,429.0,429.0,429.0,629.0,629.0,629.0,500,500,500,565.0,320.0,629.0
0,98.0,113.0,200.0,467.0,0.0,429.0,509.9,11.3,512.4,467.0,467.0,467.0,467.0,467.0,565.0,565.0,565.0,565.0,565.0,565.0,565.0,565.0,565.0,565.0,565.0,504.0,504.0,504.0,504.0,0.0,0.0,0.0,0.0,0.0,0.0,0.0,0.0,0.0,0.0,0.0,0.0,0.0,0.0,0.0,0.0,113.0,113.0,113.0,113.0,429.0,429.0,429.0,429.0,429.0,629.0,629.0,629.0,629.0,629.0,629.0,629.0,629.0,629.0,629.0,629.0,463.0,463.0,463.0,463.0,500,500,500,565.0,113.0,629.0
0,61.0,432.0,166.0,504.0,113.0,463.0,518.3,107.9,504.3333333333333,504.0,504.0,504.0,504.0,504.0,504.0,504.0,504.0,504.0,504.0,504.0,504.0,504.0,504.0,505.0,505.0,505.0,505.0,505.0,505.0,113.0,113.0,113.0,113.0,113.0,113.0,113.0,113.0,113.0,113.0,113.0,113.0,113.0,113.0,432.0,432.0,432.0,432.0,432.0,432.0,463.0,463.0,463.0,463.0,463.0,463.0,463.0,463.0,463.0,463.0,463.0,463.0,463.0,463.0,502.0,502.0,502.0,502.0,502.0,502.0,500,500,500,505.0,432.0,502.0
0,16.0,445.0,78.0,489.0,432.0,502.0,503.1333333333333,359.53333333333336,495.5,505.0,505.0,505.0,505.0,505.0,505.0,505.0,505.0,505.0,505.0,505.0,505.0,505.0,505.0,505.0,505.0,505.0,489.0,489.0,489.0,432.0,432.0,432.0,432.0,432.0,432.0,432.0,432.0,432.0,432.0,432.0,432.0,432.0,432.0,432.0,432.0,432.0,558.0,558.0,558.0,502.0,502.0,502.0,502.0,502.0,502.0,502.0,502.0,502.0,502.0,502.0,502.0,502.0,502.0,502.0,502.0,502.0,541.0,541.0,541.0,500,500,500,505.0,558.0,541.0
0,52.0,580.0,108.0,453.0,558.0,433.0,490.73333333333335,561.4,517.2,489.0,489.0,489.0,489.0,489.0,489.0,489.0,489.0,489.0,489.0,489.0,489.0,489.0,453.0,453.0,453.0,453.0,453.0,453.0,453.0,558.0,558.0,558.0,558.0,558.0,558.0,558.0,558.0,558.0,558.0,558.0,558.0,558.0,1012.0,1012.0,1012.0,1012.0,1012.0,1012.0,1012.0,541.0,541.0,541.0,541.0,541.0,541.0,541.0,541.0,541.0,541.0,541.0,541.0,541.0,433.0,433.0,433.0,433.0,433.0,433.0,433.0,500,500,500,489.0,1012.0,541.0
0,34.0,250.0,14.0,453.0,762.0,433.0,463.2,937.0,437.2,453.0,453.0,453.0,453.0,453.0,453.0,453.0,453.0,453.0,453.0,453.0,487.0,487.0,487.0,487.0,487.0,487.0,487.0,487.0,487.0,1012.0,1012.0,1012.0,1012.0,1012.0,1012.0,1012.0,1012.0,1012.0,1012.0,1012.0,762.0,762.0,762.0,762.0,762.0,762.0,762.0,762.0,762.0,433.0,433.0,433.0,433.0,433.0,433.0,433.0,433.0,433.0,433.0,433.0,447.0,447.0,447.0,447.0,447.0,447.0,447.0,447.0,447.0,500,500,500,487.0,1012.0,447.0
0,57.0,512.0,112.0,492.0,473.0,535.0,511.3,764.5,518.2,492.0,492.0,492.0,492.0,492.0,492.0,492.0,492.0,544.0,544.0,544.0,544.0,544.0,544.0,544.0,544.0,544.0,544.0,544.0,544.0,473.0,473.0,473.0,473.0,473.0,473.0,473.0,473.0,985.0,985.0,985.0,985.0,985.0,985.0,985.0,985.0,985.0,985.0,985.0,985.0,535.0,535.0,535.0,535.0,535.0,535.0,535.0,535.0,559.0,559.0,559.0,559.0,559.0,559.0,559.0,559.0,559.0,559.0,559.0,559.0,500,500,500,544.0,985.0,559.0
0,85.0,548.0,58.0,480.0,966.0,501.0,520.2,979.8666666666667,543.7,544.0,544.0,544.0,544.0,544.0,480.0,480.0,480.0,480.0,480.0,480.0,480.0,480.0,480.0,480.0,480.0,565.0,565.0,565.0,565.0,985.0,985.0,985.0,985.0,985.0,1021.0,1021.0,1021.0,1021.0,1021.0,1021.0,1021.0,1021.0,1021.0,1021.0,1021.0,966.0,966.0,966.0,966.0,559.0,559.0,559.0,559.0,559.0,530.0,530.0,530.0,530.0,530.0,530.0,530.0,530.0,530.0,530.0,530.0,501.0,501.0,501.0,501.0,500,500,500,565.0,1021.0,559.0
0,85.0,568.0,132.0,556.0,453.0,501.0,546.2,874.4,533.2,565.0,565.0,565.0,565.0,565.0,565.0,565.0,565.0,565.0,565.0,565.0,565.0,565.0,565.0,556.0,556.0,556.0,556.0,556.0,556.0,966.0,966.0,966.0,966.0,966.0,966.0,966.0,966.0,966.0,966.0,966.0,966.0,966.0,966.0,453.0,453.0,453.0,453.0,453.0,453.0,501.0,501.0,501.0,501.0,501.0,501.0,501.0,501.0,501.0,501.0,501.0,501.0,501.0,501.0,633.0,633.0,633.0,633.0,633.0,633.0,500,500,500,565.0,966.0,633.0
0,68.0,569.0,202.0,497.0,453.0,431.0,545.7,652.3,570.6,556.0,556.0,556.0,556.0,556.0,556.0,556.0,556.0,556.0,556.0,556.0,556.0,556.0,556.0,497.0,497.0,497.0,497.0,497.0,497.0,453.0,453.0,453.0,453.0,453.0,453.0,453.0,453.0,453.0,453.0,453.0,453.0,453.0,453.0,1022.0,1022.0,1022.0,1022.0,1022.0,1022.0,633.0,633.0,633.0,633.0,633.0,633.0,633.0,633.0,633.0,633.0,633.0,633.0,633.0,633.0,431.0,431.0,431.0,431.0,431.0,431.0,500,500,500,556.0,1022.0,633.0
0,11.0,1.0,96.0,486.0,1021.0,431.0,492.96666666666664,1021.6333333333333,466.2,497.0,497.0,497.0,497.0,497.0,486.0,486.0,486.0,486.0,486.0,486.0,486.0,486.0,486.0,486.0,486.0,486.0,486.0,486.0,486.0,1022.0,1022.0,1022.0,1022.0,1022.0,1021.0,1021.0,1021.0,1021.0,1021.0,1021.0,1021.0,1021.0,1021.0,1021.0,1021.0,1021.0,1021.0,1021.0,1021.0,431.0,431.0,431.0,431.0,431.0,527.0,527.0,527.0,527.0,527.0,527.0,527.0,527.0,527.0,527.0,527.0,527.0,527.0,527.0,527.0,500,500,500,497.0,1022.0,527.0
0,158.0,634.0,118.0,384.0,388.0,527.0,463.26666666666665,813.0666666666667,526.5333333333333,486.0,486.0,486.0,486.0,486.0,486.0,486.0,486.0,486.0,486.0,384.0,384.0,384.0,384.0,384.0,384.0,384.0,384.0,542.0,542.0,1021.0,1021.0,1021.0,1021.0,1021.0,1021.0,1021.0,1021.0,1021.0,1021.0,388.0,388.0,388.0,388.0,388.0,388.0,388.0,388.0,433.0,433.0,527.0,527.0,527.0,527.0,527.0,527.0,527.0,527.0,527.0,527.0,549.0,549.0,549.0,549.0,549.0,549.0,549.0,549.0,528.0,528.0,500,500,500,542.0,1021.0,549.0
0,158.0,742.0,22.0,384.0,279.0,528.0,487.3333333333333,498.46666666666664,533.8333333333334,384.0,384.0,384.0,542.0,542.0,542.0,542.0,542.0,542.0,542.0,542.0,542.0,542.0,542.0,542.0,542.0,518.0,518.0,518.0,518.0,388.0,388.0,388.0,433.0,433.0,433.0,433.0,433.0,433.0,433.0,433.0,433.0,433.0,433.0,433.0,433.0,279.0,279.0,279.0,279.0,549.0,549.0,549.0,528.0,528.0,528.0,528.0,528.0,528.0,528.0,528.0,528.0,528.0,528.0,528.0,528.0,531.0,531.0,531.0,531.0,500,500,500,542.0,433.0,549.0
0,40.0,589.0,7.0,502.0,279.0,524.0,522.0,443.0,528.7,518.0,518.0,518.0,518.0,518.0,518.0,518.0,518.0,518.0,518.0,518.0,518.0,518.0,518.0,502.0,502.0,502.0,502.0,502.0,502.0,279.0,279.0,279.0,279.0,279.0,279.0,279.0,279.0,279.0,279.0,279.0,279.0,279.0,279.0,868.0,868.0,868.0,868.0,868.0,868.0,531.0,531.0,531.0,531.0,531.0,531.0,531.0,531.0,531.0,531.0,531.0,531.0,531.0,531.0,524.0,524.0,524.0,524.0,524.0,524.0,500,500,500,518.0,868.0,531.0
0,16.0,868.0,7.0,502.0,0.0,524.0,509.26666666666665,565.2333333333333,526.6666666666666,518.0,502.0,502.0,502.0,502.0,502.0,502.0,502.0,502.0,502.0,502.0,502.0,502.0,502.0,502.0,502.0,502.0,516.0,516.0,516.0,279.0,868.0,868.0,868.0,868.0,868.0,868.0,868.0,868.0,868.0,868.0,868.0,868.0,868.0,868.0,868.0,868.0,0.0,0.0,0.0,531.0,524.0,524.0,524.0,524.0,524.0,524.0,524.0,524.0,524.0,524.0,524.0,524.0,524.0,524.0,524.0,524.0,525.0,525.0,525.0,500,500,500,518.0,868.0,531.0
0,17.0,868.0,28.0,501.0,0.0,524.0,507.1,472.23333333333335,527.3666666666667,502.0,502.0,502.0,502.0,502.0,502.0,502.0,516.0,516.0,516.0,516.0,516.0,516.0,516.0,516.0,516.0,516.0,501.0,501.0,501.0,868.0,868.0,868.0,868.0,868.0,868.0,868.0,0.0,0.0,0.0,0.0,0.0,0.0,0.0,0.0,0.0,0.0,0.0,0.0,0.0,524.0,524.0,524.0,524.0,524.0,524.0,524.0,525.0,525.0,525.0,525.0,525.0,525.0,525.0,525.0,525.0,525.0,552.0,552.0,552.0,500,500,500,516.0,868.0,552.0
0,68.0,868.0,44.0,501.0,0.0,508.0,515.1666666666666,86.8,534.3333333333334,516.0,516.0,516.0,501.0,501.0,501.0,501.0,501.0,501.0,501.0,501.0,501.0,501.0,501.0,501.0,501.0,569.0,569.0,569.0,569.0,0.0,0.0,0.0,0.0,0.0,0.0,0.0,0.0,0.0,0.0,0.0,0.0,0.0,0.0,0.0,0.0,0.0,0.0,0.0,0.0,525.0,525.0,525.0,552.0,552.0,552.0,552.0,552.0,552.0,552.0,552.0,552.0,552.0,552.0,552.0,552.0,508.0,508.0,508.0,508.0,500,500,500,569.0,0.0,552.0
0,61.0,0.0,30.0,508.0,0.0,508.0,542.5666666666667,0.0,521.0,569.0,569.0,569.0,569.0,569.0,569.0,569.0,508.0,508.0,508.0,508.0,508.0,508.0,508.0,508.0,508.0,508.0,508.0,508.0,508.0,0.0,0.0,0.0,0.0,0.0,0.0,0.0,0.0,0.0,0.0,0.0,0.0,0.0,0.0,0.0,0.0,0.0,0.0,0.0,0.0,508.0,508.0,508.0,508.0,508.0,508.0,508.0,538.0,538.0,538.0,538.0,538.0,538.0,538.0,538.0,538.0,538.0,538.0,538.0,538.0,500,500,500,569.0,0.0,538.0
0,60.0,1.0,25.0,448.0,0.0,549.0,466.3333333333333,0.36666666666666664,550.3666666666667,449.0,449.0,449.0,449.0,449.0,449.0,449.0,449.0,449.0,448.0,448.0,448.0,448.0,448.0,448.0,448.0,448.0,448.0,448.0,448.0,0.0,0.0,0.0,0.0,0.0,0.0,0.0,0.0,0.0,1.0,1.0,1.0,1.0,1.0,1.0,1.0,1.0,1.0,1.0,1.0,563.0,563.0,563.0,563.0,563.0,563.0,563.0,563.0,563.0,549.0,549.0,549.0,549.0,549.0,549.0,549.0,549.0,549.0,549.0,549.0,500,500,500,449.0,1.0,563.0
0,82.0,1.0,42.0,448.0,0.0,521.0,455.6,0.6,548.0,448.0,448.0,448.0,448.0,448.0,448.0,448.0,448.0,448.0,448.0,448.0,448.0,458.0,458.0,458.0,458.0,458.0,458.0,530.0,530.0,1.0,1.0,1.0,1.0,1.0,1.0,1.0,1.0,1.0,1.0,1.0,1.0,0.0,0.0,0.0,0.0,0.0,0.0,0.0,0.0,549.0,549.0,549.0,549.0,549.0,549.0,549.0,549.0,549.0,549.0,549.0,549.0,544.0,544.0,544.0,544.0,544.0,544.0,521.0,521.0,500,500,500,530.0,1.0,549.0
0,27.0,0.0,5.0,503.0,0.0,521.0,520.1,0.0,523.0,530.0,530.0,530.0,530.0,530.0,530.0,530.0,503.0,503.0,503.0,503.0,503.0,503.0,503.0,503.0,503.0,503.0,503.0,503.0,503.0,0.0,0.0,0.0,0.0,0.0,0.0,0.0,0.0,0.0,0.0,0.0,0.0,0.0,0.0,0.0,0.0,0.0,0.0,0.0,0.0,521.0,521.0,521.0,521.0,521.0,521.0,526.0,526.0,526.0,526.0,526.0,526.0,526.0,526.0,526.0,526.0,526.0,526.0,526.0,526.0,500,500,500,530.0,0.0,526.0
0,74.0,4.0,53.0,503.0,0.0,473.0,537.8,1.5,496.0,503.0,503.0,545.0,545.0,545.0,545.0,545.0,545.0,545.0,545.0,545.0,577.0,577.0,577.0,577.0,577.0,577.0,577.0,577.0,577.0,0.0,0.0,1.0,1.0,1.0,1.0,1.0,1.0,1.0,1.0,1.0,4.0,4.0,4.0,4.0,4.0,4.0,4.0,4.0,4.0,526.0,526.0,479.0,479.0,479.0,479.0,479.0,479.0,479.0,479.0,479.0,473.0,473.0,473.0,473.0,473.0,473.0,473.0,473.0,473.0,500,500,500,577.0,4.0,526.0
0,92.0,76.0,119.0,485.0,0.0,534.0,520.0666666666667,39.06666666666667,546.7333333333333,517.0,517.0,517.0,517.0,517.0,485.0,485.0,485.0,485.0,485.0,485.0,485.0,485.0,485.0,485.0,485.0,485.0,485.0,485.0,485.0,0.0,0.0,0.0,0.0,0.0,76.0,76.0,76.0,76.0,76.0,76.0,76.0,76.0,76.0,76.0,76.0,76.0,76.0,76.0,76.0,534.0,534.0,534.0,534.0,534.0,592.0,592.0,592.0,592.0,592.0,592.0,592.0,592.0,592.0,592.0,592.0,592.0,592.0,592.0,592.0,500,500,500,517.0,76.0,592.0
0,85.0,171.0,58.0,485.0,76.0,545.0,502.3666666666667,85.56666666666666,573.9666666666667,485.0,485.0,485.0,485.0,485.0,485.0,485.0,485.0,485.0,502.0,502.0,502.0,502.0,570.0,570.0,570.0,570.0,570.0,570.0,570.0,76.0,76.0,76.0,76.0,76.0,76.0,76.0,76.0,76.0,103.0,103.0,103.0,103.0,171.0,171.0,171.0,171.0,171.0,171.0,171.0,592.0,592.0,592.0,592.0,592.0,592.0,592.0,592.0,592.0,545.0,545.0,545.0,545.0,559.0,559.0,559.0,559.0,559.0,559.0,559.0,500,500,500,570.0,171.0,592.0
0,46.0,123.0,64.0,524.0,48.0,559.0,540.8666666666667,93.1,599.5333333333333,524.0,524.0,524.0,524.0,524.0,524.0,524.0,524.0,524.0,524.0,524.0,524.0,524.0,524.0,524.0,524.0,524.0,524.0,524.0,524.0,48.0,48.0,48.0,48.0,48.0,48.0,48.0,48.0,48.0,48.0,48.0,48.0,48.0,48.0,48.0,48.0,48.0,48.0,48.0,48.0,623.0,623.0,623.0,623.0,623.0,623.0,623.0,623.0,623.0,623.0,623.0,623.0,623.0,623.0,623.0,623.0,623.0,623.0,623.0,623.0,500,500,500,524.0,48.0,623.0
0,60.0,310.0,185.0,464.0,339.0,438.0,490.3333333333333,287.1333333333333,509.06666666666666,507.0,507.0,507.0,507.0,507.0,507.0,464.0,464.0,464.0,464.0,464.0,464.0,464.0,464.0,464.0,464.0,464.0,464.0,464.0,464.0,358.0,358.0,358.0,358.0,358.0,358.0,339.0,339.0,339.0,339.0,339.0,339.0,339.0,339.0,339.0,339.0,339.0,339.0,339.0,339.0,438.0,438.0,438.0,438.0,438.0,438.0,511.0,511.0,511.0,511.0,511.0,511.0,511.0,511.0,511.0,511.0,511.0,511.0,511.0,511.0,500,500,500,507.0,358.0,511.0
0,69.0,63.0,60.0,464.0,339.0,451.0,483.1666666666667,362.4,487.96666666666664,464.0,464.0,464.0,464.0,464.0,464.0,464.0,464.0,510.0,510.0,510.0,510.0,510.0,510.0,510.0,510.0,510.0,510.0,510.0,533.0,339.0,339.0,339.0,339.0,339.0,339.0,339.0,339.0,402.0,402.0,402.0,402.0,402.0,402.0,402.0,402.0,402.0,402.0,402.0,348.0,511.0,511.0,511.0,511.0,511.0,511.0,511.0,511.0,451.0,451.0,451.0,451.0,451.0,451.0,451.0,451.0,451.0,451.0,451.0,480.0,500,500,500,533.0,402.0,511.0
0,35.0,674.0,29.0,533.0,348.0,460.0,527.7,454.06666666666666,468.6333333333333,533.0,533.0,533.0,533.0,533.0,533.0,533.0,533.0,533.0,533.0,533.0,533.0,533.0,533.0,533.0,545.0,545.0,545.0,545.0,545.0,348.0,348.0,348.0,348.0,348.0,348.0,348.0,348.0,348.0,348.0,348.0,348.0,348.0,348.0,348.0,1022.0,1022.0,1022.0,1022.0,1022.0,480.0,480.0,480.0,480.0,480.0,480.0,480.0,480.0,480.0,480.0,480.0,480.0,480.0,480.0,480.0,460.0,460.0,460.0,460.0,460.0,500,500,500,545.0,1022.0,480.0
0,55.0,674.0,20.0,490.0,1022.0,460.0,535.5,797.3333333333334,467.76666666666665,545.0,545.0,545.0,545.0,545.0,545.0,545.0,545.0,545.0,545.0,545.0,545.0,545.0,545.0,545.0,545.0,545.0,490.0,490.0,490.0,1022.0,1022.0,1022.0,1022.0,1022.0,1022.0,1022.0,1022.0,1022.0,1022.0,1022.0,1022.0,1022.0,1022.0,1022.0,1022.0,1022.0,1022.0,1022.0,1022.0,460.0,460.0,460.0,460.0,460.0,460.0,460.0,460.0,460.0,460.0,460.0,460.0,460.0,460.0,460.0,460.0,460.0,471.0,471.0,471.0,500,500,500,545.0,1022.0,471.0
0,55.0,1.0,25.0,490.0,1022.0,471.0,515.5333333333333,1022.2666666666667,471.06666666666666,490.0,490.0,490.0,490.0,490.0,490.0,490.0,490.0,490.0,490.0,490.0,517.0,517.0,517.0,517.0,517.0,517.0,517.0,517.0,517.0,1022.0,1022.0,1022.0,1022.0,1022.0,1022.0,1022.0,1022.0,1022.0,1022.0,1022.0,1023.0,1023.0,1023.0,1023.0,1023.0,1023.0,1023.0,1023.0,1023.0,471.0,471.0,471.0,471.0,471.0,471.0,471.0,471.0,471.0,471.0,471.0,485.0,485.0,485.0,485.0,485.0,485.0,485.0,485.0,485.0,500,500,500,517.0,1023.0,485.0
0,30.0,2.0,33.0,487.0,1021.0,485.0,506.4,1022.4,487.56666666666666,517.0,517.0,517.0,517.0,517.0,517.0,517.0,517.0,517.0,517.0,517.0,517.0,487.0,487.0,487.0,487.0,487.0,487.0,487.0,487.0,1023.0,1023.0,1023.0,1023.0,1023.0,1023.0,1023.0,1023.0,1023.0,1023.0,1023.0,1023.0,1021.0,1021.0,1021.0,1021.0,1021.0,1021.0,1021.0,1021.0,485.0,485.0,485.0,485.0,485.0,485.0,485.0,485.0,485.0,485.0,485.0,485.0,504.0,504.0,504.0,504.0,504.0,504.0,504.0,504.0,500,500,500,517.0,1023.0,504.0
0,79.0,3.0,44.0,487.0,1020.0,504.0,502.26666666666665,1021.6,499.3333333333333,487.0,487.0,487.0,487.0,487.0,487.0,487.0,487.0,487.0,487.0,487.0,487.0,487.0,487.0,487.0,487.0,487.0,566.0,566.0,566.0,1021.0,1021.0,1021.0,1021.0,1021.0,1021.0,1021.0,1021.0,1021.0,1021.0,1021.0,1021.0,1021.0,1021.0,1021.0,1021.0,1021.0,1020.0,1020.0,1020.0,504.0,504.0,504.0,504.0,504.0,504.0,504.0,504.0,504.0,504.0,504.0,504.0,504.0,504.0,504.0,504.0,504.0,529.0,529.0,529.0,500,500,500,566.0,1021.0,529.0
0,79.0,1021.0,25.0,512.0,0.0,511.0,521.6666666666666,680.3333333333334,514.6666666666666,566.0,566.0,566.0,566.0,566.0,566.0,566.0,566.0,566.0,566.0,512.0,512.0,512.0,512.0,512.0,512.0,512.0,512.0,512.0,512.0,1020.0,1020.0,1020.0,1020.0,1020.0,1020.0,1020.0,1020.0,1020.0,1020.0,0.0,0.0,0.0,0.0,0.0,0.0,0.0,0.0,0.0,0.0,529.0,529.0,529.0,529.0,529.0,529.0,529.0,529.0,529.0,529.0,511.0,511.0,511.0,511.0,511.0,511.0,511.0,511.0,511.0,511.0,500,500,500,566.0,1020.0,529.0
0,110.0,1020.0,20.0,496.0,0.0,511.0,531.2,68.0,517.8,512.0,512.0,512.0,512.0,512.0,512.0,512.0,496.0,496.0,496.0,496.0,496.0,496.0,606.0,606.0,606.0,606.0,606.0,606.0,606.0,0.0,0.0,0.0,0.0,0.0,0.0,0.0,0.0,0.0,0.0,0.0,0.0,0.0,0.0,0.0,0.0,0.0,0.0,0.0,0.0,511.0,511.0,511.0,511.0,511.0,511.0,511.0,531.0,531.0,531.0,531.0,531.0,519.0,519.0,519.0,519.0,519.0,519.0,519.0,519.0,500,500,500,606.0,0.0,531.0
0,102.0,1.0,26.0,504.0,0.0,493.0,578.8,0.26666666666666666,512.0666666666667,606.0,606.0,606.0,606.0,606.0,606.0,606.0,606.0,606.0,606.0,504.0,504.0,504.0,504.0,504.0,504.0,504.0,504.0,504.0,504.0,0.0,0.0,0.0,0.0,0.0,0.0,0.0,0.0,0.0,0.0,1.0,1.0,1.0,1.0,1.0,1.0,1.0,1.0,1.0,1.0,519.0,519.0,519.0,519.0,519.0,519.0,519.0,519.0,519.0,519.0,493.0,493.0,493.0,493.0,493.0,493.0,493.0,493.0,493.0,493.0,500,500,500,606.0,1.0,519.0
0,102.0,1.0,43.0,504.0,1.0,476.0,535.1333333333333,0.7666666666666667,496.8,504.0,504.0,504.0,504.0,504.0,504.0,504.0,504.0,504.0,504.0,504.0,504.0,504.0,504.0,504.0,504.0,559.0,559.0,559.0,559.0,1.0,1.0,1.0,1.0,1.0,1.0,1.0,1.0,1.0,1.0,1.0,1.0,1.0,1.0,1.0,1.0,1.0,1.0,1.0,1.0,493.0,493.0,493.0,493.0,493.0,493.0,493.0,493.0,493.0,493.0,493.0,493.0,493.0,493.0,493.0,493.0,476.0,476.0,476.0,476.0,500,500,500,559.0,1.0,493.0
0,62.0,0.0,26.0,497.0,1.0,467.0,526.2,1.0,479.56666666666666,559.0,559.0,559.0,559.0,559.0,559.0,559.0,559.0,559.0,559.0,559.0,497.0,497.0,497.0,497.0,497.0,497.0,497.0,497.0,497.0,1.0,1.0,1.0,1.0,1.0,1.0,1.0,1.0,1.0,1.0,1.0,1.0,1.0,1.0,1.0,1.0,1.0,1.0,1.0,1.0,476.0,476.0,476.0,476.0,476.0,476.0,476.0,476.0,476.0,476.0,476.0,467.0,467.0,467.0,467.0,467.0,467.0,467.0,467.0,467.0,500,500,500,559.0,1.0,476.0
0,15.0,1.0,42.0,493.0,0.0,467.0,496.1,0.4,491.1,497.0,497.0,493.0,493.0,493.0,493.0,493.0,493.0,493.0,493.0,493.0,493.0,493.0,493.0,493.0,493.0,493.0,508.0,508.0,508.0,1.0,1.0,0.0,0.0,0.0,0.0,0.0,0.0,0.0,0.0,0.0,0.0,0.0,0.0,0.0,0.0,0.0,0.0,0.0,0.0,467.0,467.0,509.0,509.0,509.0,509.0,509.0,509.0,509.0,509.0,509.0,509.0,509.0,509.0,509.0,509.0,509.0,498.0,498.0,498.0,500,500,500,508.0,1.0,509.0
0,15.0,4.0,19.0,503.0,0.0,490.0,504.3333333333333,0.5333333333333333,499.1333333333333,508.0,508.0,508.0,508.0,508.0,508.0,508.0,508.0,508.0,508.0,508.0,508.0,508.0,508.0,508.0,508.0,503.0,503.0,503.0,503.0,0.0,0.0,0.0,0.0,0.0,0.0,0.0,0.0,0.0,0.0,0.0,0.0,0.0,0.0,0.0,0.0,4.0,4.0,4.0,4.0,498.0,498.0,498.0,498.0,498.0,498.0,498.0,498.0,498.0,498.0,498.0,498.0,498.0,498.0,498.0,498.0,490.0,490.0,490.0,490.0,500,500,500,508.0,4.0,498.0
0,30.0,4.0,15.0,478.0,0.0,490.0,500.8333333333333,1.7333333333333334,495.7,508.0,508.0,503.0,503.0,503.0,503.0,503.0,503.0,503.0,503.0,503.0,503.0,503.0,503.0,503.0,478.0,478.0,478.0,478.0,478.0,0.0,0.0,4.0,4.0,4.0,4.0,4.0,4.0,4.0,4.0,4.0,4.0,4.0,4.0,4.0,0.0,0.0,0.0,0.0,0.0,498.0,498.0,490.0,490.0,490.0,490.0,490.0,490.0,490.0,490.0,490.0,490.0,490.0,490.0,490.0,505.0,505.0,505.0,505.0,505.0,500,500,500,508.0,4.0,505.0
0,25.0,32.0,25.0,478.0,0.0,480.0,492.1666666666667,15.333333333333334,491.8333333333333,478.0,478.0,478.0,478.0,503.0,503.0,503.0,503.0,503.0,503.0,503.0,503.0,503.0,503.0,503.0,503.0,503.0,503.0,503.0,503.0,0.0,0.0,0.0,0.0,32.0,32.0,32.0,32.0,32.0,32.0,32.0,32.0,32.0,32.0,32.0,32.0,32.0,32.0,32.0,32.0,505.0,505.0,505.0,505.0,480.0,480.0,480.0,480.0,480.0,480.0,480.0,480.0,480.0,480.0,480.0,480.0,480.0,480.0,480.0,480.0,500,500,500,503.0,32.0,505.0
0,1.0,93.0,78.0,503.0,32.0,480.0,503.56666666666666,60.4,507.93333333333334,503.0,503.0,503.0,504.0,504.0,504.0,504.0,504.0,504.0,504.0,504.0,504.0,504.0,504.0,504.0,504.0,504.0,504.0,504.0,504.0,32.0,32.0,32.0,125.0,125.0,125.0,125.0,125.0,125.0,125.0,125.0,44.0,44.0,44.0,44.0,44.0,44.0,44.0,44.0,44.0,480.0,480.0,480.0,497.0,497.0,497.0,497.0,497.0,497.0,497.0,497.0,558.0,558.0,558.0,558.0,558.0,558.0,558.0,558.0,558.0,500,500,500,504.0,125.0,558.0
0,22.0,244.0,61.0,504.0,44.0,500.0,506.93333333333334,92.73333333333333,538.0666666666667,504.0,504.0,504.0,504.0,504.0,504.0,504.0,504.0,504.0,504.0,504.0,504.0,504.0,504.0,526.0,526.0,526.0,526.0,526.0,526.0,44.0,44.0,44.0,44.0,44.0,44.0,44.0,44.0,44.0,44.0,44.0,44.0,44.0,44.0,288.0,288.0,288.0,288.0,288.0,288.0,558.0,558.0,558.0,558.0,558.0,558.0,558.0,558.0,558.0,558.0,558.0,558.0,558.0,558.0,500.0,500.0,500.0,500.0,500.0,500.0,500,500,500,526.0,288.0,558.0
0,22.0,244.0,58.0,504.0,44.0,500.0,517.2,190.4,523.2,504.0,504.0,526.0,526.0,526.0,526.0,526.0,526.0,526.0,526.0,526.0,526.0,526.0,526.0,526.0,526.0,526.0,526.0,526.0,525.0,44.0,44.0,288.0,288.0,288.0,288.0,288.0,288.0,288.0,288.0,288.0,288.0,288.0,288.0,288.0,288.0,288.0,288.0,288.0,300.0,558.0,558.0,500.0,500.0,500.0,500.0,500.0,500.0,500.0,500.0,500.0,500.0,500.0,500.0,500.0,500.0,500.0,500.0,500.0,492.0,500,500,500,526.0,288.0,558.0
0,35.0,38.0,22.0,491.0,288.0,492.0,517.4666666666667,301.26666666666665,500.3333333333333,526.0,526.0,525.0,525.0,525.0,525.0,525.0,525.0,525.0,525.0,525.0,525.0,525.0,491.0,491.0,491.0,491.0,491.0,491.0,491.0,288.0,288.0,300.0,300.0,300.0,300.0,300.0,300.0,300.0,300.0,300.0,300.0,300.0,326.0,326.0,326.0,326.0,326.0,326.0,326.0,500.0,500.0,492.0,492.0,492.0,492.0,492.0,492.0,492.0,492.0,492.0,492.0,492.0,514.0,514.0,514.0,514.0,514.0,514.0,514.0,500,500,500,526.0,326.0,514.0
0,6.0,71.0,14.0,485.0,326.0,500.0,488.4,356.76666666666665,507.93333333333334,491.0,491.0,491.0,491.0,491.0,485.0,485.0,485.0,485.0,485.0,485.0,485.0,485.0,485.0,485.0,485.0,485.0,485.0,485.0,485.0,326.0,326.0,326.0,326.0,326.0,397.0,397.0,397.0,397.0,397.0,397.0,397.0,397.0,397.0,397.0,397.0,397.0,397.0,397.0,397.0,514.0,514.0,514.0,514.0,514.0,500.0,500.0,500.0,500.0,500.0,500.0,500.0,500.0,500.0,500.0,500.0,500.0,500.0,500.0,500.0,500,500,500,491.0,397.0,514.0
0,21.0,50.0,39.0,499.0,421.0,508.0,501.56666666666666,427.26666666666665,517.5333333333333,499.0,499.0,499.0,506.0,506.0,506.0,506.0,506.0,506.0,506.0,506.0,506.0,506.0,506.0,506.0,506.0,506.0,506.0,506.0,506.0,447.0,447.0,447.0,421.0,421.0,421.0,421.0,421.0,421.0,421.0,421.0,421.0,421.0,421.0,421.0,421.0,421.0,421.0,421.0,421.0,539.0,539.0,539.0,508.0,508.0,508.0,508.0,508.0,508.0,508.0,508.0,508.0,508.0,508.0,508.0,508.0,508.0,508.0,508.0,508.0,500,500,500,506.0,447.0,539.0
0,25.0,46.0,8.0,486.0,421.0,504.0,501.6666666666667,434.0,508.6666666666667,506.0,506.0,506.0,506.0,506.0,506.0,506.0,506.0,506.0,506.0,506.0,486.0,486.0,486.0,486.0,486.0,486.0,486.0,511.0,511.0,421.0,421.0,421.0,421.0,421.0,421.0,421.0,421.0,421.0,421.0,421.0,467.0,467.0,467.0,467.0,467.0,467.0,467.0,455.0,455.0,508.0,508.0,508.0,508.0,508.0,508.0,508.0,508.0,508.0,508.0,508.0,512.0,512.0,512.0,512.0,512.0,512.0,512.0,504.0,504.0,500,500,500,511.0,467.0,512.0
0,25.0,46.0,26.0,510.0,455.0,504.0,504.6666666666667,457.0,514.6666666666666,511.0,511.0,511.0,511.0,511.0,511.0,511.0,510.0,510.0,510.0,510.0,510.0,510.0,510.0,510.0,510.0,510.0,510.0,510.0,510.0,455.0,455.0,455.0,455.0,455.0,455.0,455.0,456.0,456.0,456.0,456.0,456.0,456.0,456.0,456.0,456.0,456.0,456.0,456.0,456.0,504.0,504.0,504.0,504.0,504.0,504.0,504.0,530.0,530.0,530.0,530.0,530.0,530.0,530.0,530.0,530.0,530.0,530.0,530.0,530.0,500,500,500,511.0,456.0,530.0
0,58.0,45.0,58.0,501.0,456.0,472.0,520.6666666666666,468.53333333333336,505.2,510.0,510.0,510.0,510.0,501.0,501.0,501.0,501.0,501.0,501.0,501.0,501.0,559.0,559.0,559.0,559.0,559.0,559.0,559.0,559.0,456.0,456.0,456.0,456.0,501.0,501.0,501.0,501.0,501.0,501.0,501.0,501.0,458.0,458.0,458.0,458.0,458.0,458.0,458.0,458.0,530.0,530.0,530.0,530.0,495.0,495.0,495.0,495.0,495.0,495.0,495.0,495.0,472.0,472.0,472.0,472.0,472.0,472.0,472.0,472.0,500,500,500,559.0,501.0,530.0
0,54.0,22.0,16.0,505.0,458.0,456.0,536.0333333333333,461.1333333333333,465.4,559.0,559.0,559.0,559.0,559.0,559.0,505.0,505.0,505.0,505.0,505.0,505.0,505.0,505.0,505.0,505.0,505.0,505.0,518.0,518.0,458.0,458.0,458.0,458.0,458.0,458.0,464.0,464.0,464.0,464.0,464.0,464.0,464.0,464.0,464.0,464.0,464.0,464.0,480.0,480.0,472.0,472.0,472.0,472.0,472.0,472.0,456.0,456.0,456.0,456.0,456.0,456.0,456.0,456.0,456.0,456.0,456.0,456.0,466.0,466.0,500,500,500,559.0,480.0,472.0
0,27.0,16.0,25.0,518.0,468.0,466.0,516.9333333333333,471.8666666666667,466.1666666666667,518.0,518.0,518.0,518.0,518.0,518.0,518.0,518.0,518.0,518.0,518.0,532.0,532.0,532.0,532.0,532.0,532.0,532.0,532.0,532.0,480.0,480.0,480.0,480.0,480.0,480.0,480.0,480.0,480.0,480.0,480.0,468.0,468.0,468.0,468.0,468.0,468.0,468.0,468.0,468.0,466.0,466.0,466.0,466.0,466.0,466.0,466.0,466.0,466.0,466.0,466.0,481.0,481.0,481.0,481.0,481.0,481.0,481.0,481.0,481.0,500,500,500,532.0,480.0,481.0
0,27.0,12.0,61.0,505.0,468.0,481.0,522.4,472.8,485.7,532.0,532.0,532.0,532.0,532.0,532.0,532.0,532.0,532.0,532.0,532.0,532.0,505.0,505.0,505.0,505.0,505.0,505.0,505.0,505.0,468.0,468.0,468.0,468.0,468.0,468.0,468.0,468.0,468.0,468.0,468.0,468.0,474.0,474.0,474.0,474.0,474.0,474.0,474.0,474.0,481.0,481.0,481.0,481.0,481.0,481.0,481.0,481.0,481.0,481.0,481.0,481.0,527.0,527.0,527.0,527.0,527.0,527.0,527.0,527.0,500,500,500,532.0,474.0,527.0
0,114.0,135.0,67.0,505.0,371.0,501.0,525.9,479.7,518.1,505.0,505.0,524.0,524.0,524.0,524.0,524.0,524.0,524.0,524.0,524.0,524.0,524.0,524.0,524.0,524.0,524.0,619.0,619.0,619.0,474.0,474.0,506.0,506.0,506.0,506.0,506.0,506.0,506.0,506.0,506.0,506.0,506.0,506.0,506.0,506.0,506.0,371.0,371.0,371.0,527.0,527.0,501.0,501.0,501.0,501.0,501.0,501.0,501.0,501.0,501.0,501.0,501.0,501.0,501.0,501.0,501.0,568.0,568.0,568.0,500,500,500,619.0,506.0,568.0
0,115.0,187.0,107.0,504.0,371.0,461.0,568.1666666666666,447.1666666666667,527.8333333333334,619.0,619.0,619.0,619.0,619.0,619.0,619.0,619.0,619.0,619.0,619.0,619.0,619.0,619.0,619.0,504.0,504.0,504.0,504.0,504.0,371.0,371.0,371.0,371.0,371.0,371.0,371.0,371.0,371.0,371.0,371.0,371.0,371.0,371.0,371.0,558.0,558.0,558.0,558.0,558.0,568.0,568.0,568.0,568.0,568.0,568.0,568.0,568.0,568.0,568.0,568.0,568.0,568.0,568.0,568.0,461.0,461.0,461.0,461.0,461.0,500,500,500,619.0,558.0,568.0
0,117.0,188.0,107.0,502.0,371.0,461.0,549.7333333333333,483.3333333333333,505.0,619.0,504.0,504.0,504.0,504.0,504.0,504.0,504.0,504.0,504.0,504.0,504.0,504.0,502.0,502.0,502.0,502.0,502.0,502.0,502.0,371.0,558.0,558.0,558.0,558.0,558.0,558.0,558.0,558.0,558.0,558.0,558.0,558.0,559.0,559.0,559.0,559.0,559.0,559.0,559.0,568.0,461.0,461.0,461.0,461.0,461.0,461.0,461.0,461.0,461.0,461.0,461.0,461.0,470.0,470.0,470.0,470.0,470.0,470.0,470.0,500,500,500,619.0,559.0,568.0
0,8.0,5.0,21.0,502.0,554.0,449.0,506.53333333333336,556.1666666666666,458.1,502.0,502.0,502.0,510.0,510.0,510.0,510.0,510.0,510.0,510.0,510.0,510.0,510.0,510.0,510.0,510.0,510.0,510.0,510.0,510.0,559.0,559.0,559.0,554.0,554.0,554.0,554.0,554.0,554.0,554.0,554.0,554.0,554.0,554.0,554.0,554.0,554.0,554.0,554.0,554.0,470.0,470.0,470.0,449.0,449.0,449.0,449.0,449.0,449.0,449.0,449.0,449.0,449.0,449.0,449.0,449.0,449.0,449.0,449.0,449.0,500,500,500,510.0,559.0,470.0
0,31.0,150.0,67.0,479.0,404.0,454.0,493.3,481.0,471.6,479.0,479.0,479.0,479.0,479.0,479.0,479.0,479.0,479.0,479.0,506.0,506.0,506.0,506.0,506.0,506.0,506.0,506.0,506.0,506.0,498.0,498.0,498.0,498.0,498.0,498.0,498.0,498.0,498.0,498.0,404.0,404.0,404.0,404.0,404.0,404.0,404.0,404.0,404.0,404.0,454.0,454.0,454.0,454.0,454.0,454.0,454.0,454.0,454.0,454.0,516.0,516.0,516.0,516.0,516.0,516.0,516.0,516.0,516.0,516.0,500,500,500,506.0,498.0,516.0
0,22.0,120.0,37.0,484.0,404.0,479.0,503.06666666666666,420.0,511.06666666666666,506.0,506.0,506.0,506.0,506.0,506.0,506.0,506.0,506.0,506.0,506.0,506.0,506.0,506.0,506.0,484.0,484.0,484.0,484.0,484.0,404.0,404.0,404.0,404.0,404.0,404.0,404.0,404.0,404.0,404.0,404.0,404.0,404.0,404.0,404.0,524.0,524.0,524.0,524.0,524.0,516.0,516.0,516.0,516.0,516.0,516.0,516.0,516.0,516.0,516.0,516.0,516.0,516.0,516.0,516.0,479.0,479.0,479.0,479.0,479.0,500,500,500,506.0,524.0,516.0
0,48.0,120.0,37.0,458.0,450.0,479.0,481.6,486.73333333333335,488.2,484.0,484.0,484.0,484.0,484.0,484.0,484.0,484.0,484.0,484.0,484.0,458.0,458.0,458.0,458.0,458.0,458.0,458.0,458.0,458.0,524.0,524.0,524.0,524.0,524.0,524.0,524.0,524.0,524.0,524.0,524.0,450.0,450.0,450.0,450.0,450.0,450.0,450.0,450.0,450.0,479.0,479.0,479.0,479.0,479.0,479.0,479.0,479.0,479.0,479.0,479.0,492.0,492.0,492.0,492.0,492.0,492.0,492.0,492.0,492.0,500,500,500,484.0,524.0,492.0
0,75.0,74.0,47.0,458.0,450.0,492.0,470.7,468.4,492.8,458.0,458.0,458.0,458.0,458.0,458.0,458.0,458.0,458.0,458.0,458.0,458.0,458.0,458.0,458.0,458.0,533.0,533.0,533.0,533.0,450.0,450.0,450.0,450.0,450.0,450.0,450.0,450.0,450.0,450.0,450.0,450.0,450.0,450.0,450.0,486.0,486.0,486.0,486.0,486.0,492.0,492.0,492.0,492.0,492.0,492.0,492.0,492.0,492.0,492.0,492.0,492.0,492.0,492.0,492.0,526.0,526.0,526.0,526.0,526.0,500,500,500,533.0,486.0,526.0
0,75.0,50.0,48.0,525.0,486.0,526.0,514.1666666666666,479.93333333333334,520.4,533.0,533.0,533.0,533.0,533.0,533.0,533.0,533.0,533.0,533.0,533.0,533.0,533.0,533.0,533.0,525.0,525.0,525.0,525.0,525.0,486.0,486.0,486.0,486.0,486.0,486.0,486.0,486.0,486.0,486.0,486.0,486.0,486.0,486.0,486.0,500.0,500.0,500.0,500.0,500.0,526.0,526.0,526.0,526.0,526.0,526.0,526.0,526.0,526.0,526.0,526.0,526.0,526.0,526.0,526.0,540.0,540.0,540.0,540.0,540.0,500,500,500,533.0,500.0,540.0
0,40.0,21.0,22.0,493.0,479.0,518.0,525.0,492.3,532.2,533.0,533.0,525.0,525.0,525.0,525.0,525.0,525.0,525.0,525.0,525.0,525.0,525.0,525.0,525.0,525.0,525.0,493.0,493.0,493.0,486.0,486.0,500.0,500.0,500.0,500.0,500.0,500.0,500.0,500.0,500.0,500.0,500.0,500.0,500.0,500.0,500.0,479.0,479.0,479.0,526.0,526.0,540.0,540.0,540.0,540.0,540.0,540.0,540.0,540.0,540.0,540.0,540.0,540.0,540.0,540.0,540.0,518.0,518.0,518.0,500,500,500,533.0,500.0,540.0
0,32.0,68.0,34.0,493.0,432.0,518.0,504.8666666666667,479.03333333333336,529.1333333333333,493.0,493.0,493.0,493.0,493.0,493.0,493.0,493.0,493.0,493.0,493.0,493.0,493.0,493.0,493.0,510.0,510.0,510.0,510.0,510.0,479.0,479.0,479.0,479.0,479.0,479.0,479.0,479.0,479.0,479.0,479.0,479.0,479.0,479.0,479.0,432.0,432.0,432.0,432.0,432.0,518.0,518.0,518.0,518.0,518.0,518.0,518.0,518.0,518.0,518.0,518.0,518.0,518.0,518.0,518.0,552.0,552.0,552.0,552.0,552.0,500,500,500,510.0,479.0,552.0
0,39.0,179.0,57.0,510.0,432.0,495.0,509.8666666666667,480.3333333333333,531.5333333333333,510.0,510.0,510.0,510.0,510.0,510.0,510.0,510.0,510.0,510.0,510.0,510.0,510.0,510.0,532.0,532.0,532.0,532.0,532.0,532.0,432.0,432.0,432.0,432.0,432.0,432.0,432.0,432.0,432.0,432.0,432.0,432.0,432.0,432.0,611.0,611.0,611.0,611.0,611.0,611.0,552.0,552.0,552.0,552.0,552.0,552.0,552.0,552.0,552.0,552.0,552.0,552.0,552.0,552.0,495.0,495.0,495.0,495.0,495.0,495.0,500,500,500,532.0,611.0,552.0
0,39.0,200.0,57.0,493.0,611.0,495.0,523.1333333333333,583.9666666666667,505.43333333333334,532.0,532.0,532.0,532.0,532.0,532.0,532.0,532.0,532.0,532.0,532.0,532.0,532.0,532.0,532.0,493.0,493.0,493.0,493.0,493.0,611.0,611.0,611.0,611.0,611.0,611.0,611.0,611.0,611.0,611.0,611.0,611.0,611.0,611.0,611.0,632.0,632.0,632.0,632.0,632.0,495.0,495.0,495.0,495.0,495.0,495.0,495.0,495.0,495.0,495.0,495.0,495.0,495.0,495.0,495.0,502.0,502.0,502.0,502.0,502.0,500,500,500,532.0,632.0,502.0
0,12.0,143.0,30.0,481.0,775.0,532.0,484.2,736.8666666666667,524.0,481.0,481.0,481.0,481.0,481.0,481.0,481.0,481.0,481.0,481.0,481.0,481.0,481.0,481.0,481.0,481.0,481.0,481.0,481.0,481.0,775.0,775.0,775.0,775.0,775.0,775.0,775.0,775.0,775.0,775.0,775.0,775.0,775.0,775.0,775.0,775.0,775.0,775.0,775.0,775.0,532.0,532.0,532.0,532.0,532.0,532.0,532.0,532.0,532.0,532.0,532.0,532.0,532.0,532.0,532.0,532.0,532.0,532.0,532.0,532.0,500,500,500,481.0,775.0,532.0
0,48.0,215.0,32.0,481.0,775.0,500.0,499.4,867.2,524.7333333333333,481.0,481.0,481.0,481.0,481.0,481.0,529.0,529.0,529.0,529.0,529.0,529.0,529.0,529.0,529.0,529.0,499.0,499.0,499.0,499.0,775.0,775.0,775.0,775.0,775.0,775.0,990.0,990.0,990.0,990.0,990.0,990.0,990.0,990.0,990.0,990.0,929.0,929.0,929.0,929.0,532.0,532.0,532.0,532.0,532.0,532.0,523.0,523.0,523.0,523.0,523.0,523.0,523.0,523.0,523.0,523.0,500.0,500.0,500.0,500.0,500,500,500,529.0,990.0,532.0
0,30.0,503.0,23.0,499.0,487.0,500.0,513.6666666666666,827.4,506.93333333333334,499.0,499.0,499.0,499.0,499.0,499.0,499.0,499.0,499.0,499.0,499.0,499.0,524.0,524.0,524.0,524.0,524.0,524.0,524.0,524.0,929.0,929.0,929.0,929.0,929.0,929.0,929.0,929.0,929.0,929.0,929.0,929.0,487.0,487.0,487.0,487.0,487.0,487.0,487.0,487.0,500.0,500.0,500.0,500.0,500.0,500.0,500.0,500.0,500.0,500.0,500.0,500.0,503.0,503.0,503.0,503.0,503.0,503.0,503.0,503.0,500,500,500,524.0,929.0,503.0
0,33.0,716.0,32.0,524.0,213.0,503.0,520.0666666666667,538.8666666666667,506.26666666666665,524.0,524.0,524.0,524.0,524.0,524.0,524.0,524.0,524.0,524.0,524.0,524.0,524.0,524.0,524.0,532.0,532.0,532.0,532.0,532.0,487.0,487.0,487.0,487.0,487.0,487.0,487.0,487.0,487.0,487.0,487.0,487.0,487.0,487.0,487.0,213.0,213.0,213.0,213.0,213.0,503.0,503.0,503.0,503.0,503.0,503.0,503.0,503.0,503.0,503.0,503.0,503.0,503.0,503.0,503.0,532.0,532.0,532.0,532.0,532.0,500,500,500,532.0,487.0,532.0
0,31.0,548.0,29.0,501.0,213.0,504.0,527.5333333333333,331.73333333333335,521.4333333333333,532.0,532.0,532.0,532.0,532.0,532.0,532.0,532.0,532.0,532.0,532.0,532.0,532.0,532.0,532.0,532.0,532.0,532.0,501.0,501.0,213.0,213.0,213.0,213.0,213.0,213.0,213.0,213.0,213.0,213.0,213.0,213.0,213.0,213.0,213.0,213.0,213.0,213.0,761.0,761.0,532.0,532.0,532.0,532.0,532.0,532.0,532.0,532.0,532.0,532.0,532.0,532.0,532.0,532.0,532.0,532.0,532.0,532.0,504.0,504.0,500,500,500,532.0,761.0,532.0
0,17.0,317.0,19.0,485.0,514.0,495.0,493.1,644.5,508.1,501.0,501.0,485.0,485.0,485.0,485.0,485.0,485.0,485.0,485.0,485.0,485.0,485.0,485.0,485.0,485.0,502.0,502.0,502.0,502.0,761.0,761.0,514.0,514.0,514.0,514.0,514.0,514.0,514.0,514.0,514.0,514.0,514.0,514.0,514.0,514.0,831.0,831.0,831.0,831.0,504.0,504.0,514.0,514.0,514.0,514.0,514.0,514.0,514.0,514.0,514.0,514.0,514.0,514.0,514.0,514.0,495.0,495.0,495.0,495.0,500,500,500,502.0,831.0,514.0
0,38.0,317.0,67.0,502.0,557.0,495.0,500.7,740.2,505.5,502.0,502.0,502.0,502.0,502.0,502.0,502.0,502.0,502.0,502.0,502.0,502.0,502.0,502.0,502.0,523.0,523.0,523.0,523.0,523.0,831.0,831.0,831.0,831.0,831.0,831.0,831.0,831.0,831.0,831.0,831.0,831.0,831.0,831.0,831.0,557.0,557.0,557.0,557.0,557.0,495.0,495.0,495.0,495.0,495.0,495.0,495.0,495.0,495.0,495.0,495.0,495.0,495.0,495.0,495.0,562.0,562.0,562.0,562.0,562.0,500,500,500,523.0,831.0,562.0
0,61.0,444.0,67.0,462.0,557.0,524.0,509.96666666666664,680.1333333333333,541.3,523.0,523.0,523.0,523.0,523.0,523.0,523.0,523.0,523.0,523.0,523.0,523.0,462.0,462.0,462.0,462.0,462.0,462.0,462.0,462.0,557.0,557.0,557.0,557.0,557.0,557.0,557.0,557.0,557.0,557.0,557.0,557.0,1001.0,1001.0,1001.0,1001.0,1001.0,1001.0,1001.0,1001.0,562.0,562.0,562.0,562.0,562.0,562.0,562.0,562.0,562.0,562.0,562.0,562.0,524.0,524.0,524.0,524.0,524.0,524.0,524.0,524.0,500,500,500,523.0,1001.0,562.0
0,58.0,118.0,11.0,462.0,883.0,524.0,477.46666666666664,969.5333333333333,526.9333333333333,462.0,462.0,462.0,462.0,462.0,462.0,462.0,462.0,462.0,462.0,462.0,462.0,520.0,520.0,520.0,520.0,520.0,520.0,520.0,520.0,1001.0,1001.0,1001.0,1001.0,1001.0,1001.0,1001.0,1001.0,1001.0,1001.0,1001.0,1001.0,883.0,883.0,883.0,883.0,883.0,883.0,883.0,883.0,524.0,524.0,524.0,524.0,524.0,524.0,524.0,524.0,524.0,524.0,524.0,524.0,535.0,535.0,535.0,535.0,535.0,535.0,535.0,535.0,500,500,500,520.0,1001.0,535.0
0,58.0,189.0,11.0,518.0,812.0,535.0,504.3333333333333,907.3666666666667,532.0666666666667,520.0,520.0,520.0,520.0,520.0,520.0,520.0,520.0,520.0,520.0,520.0,520.0,520.0,520.0,520.0,520.0,520.0,518.0,518.0,518.0,883.0,883.0,883.0,883.0,883.0,883.0,883.0,883.0,883.0,883.0,883.0,883.0,883.0,883.0,883.0,883.0,883.0,812.0,812.0,812.0,535.0,535.0,535.0,535.0,535.0,535.0,535.0,535.0,535.0,535.0,535.0,535.0,535.0,535.0,535.0,535.0,535.0,535.0,535.0,535.0,500,500,500,520.0,883.0,535.0
0,8.0,213.0,27.0,518.0,670.0,508.0,519.9333333333333,823.8333333333334,531.4,520.0,520.0,520.0,518.0,518.0,518.0,518.0,518.0,518.0,518.0,518.0,518.0,518.0,518.0,518.0,526.0,526.0,526.0,526.0,526.0,883.0,883.0,883.0,812.0,812.0,812.0,812.0,812.0,812.0,812.0,812.0,812.0,812.0,812.0,812.0,670.0,670.0,670.0,670.0,670.0,535.0,535.0,535.0,535.0,535.0,535.0,535.0,535.0,535.0,535.0,535.0,535.0,535.0,535.0,535.0,508.0,508.0,508.0,508.0,508.0,500,500,500,526.0,883.0,535.0
0,26.0,478.0,45.0,500.0,334.0,508.0,518.2,675.5333333333333,527.2,518.0,518.0,518.0,526.0,526.0,526.0,526.0,526.0,526.0,526.0,526.0,526.0,526.0,526.0,500.0,500.0,500.0,500.0,500.0,500.0,812.0,812.0,812.0,670.0,670.0,670.0,670.0,670.0,670.0,670.0,670.0,670.0,670.0,670.0,334.0,334.0,334.0,334.0,334.0,334.0,535.0,535.0,535.0,508.0,508.0,508.0,508.0,508.0,508.0,508.0,508.0,508.0,508.0,508.0,553.0,553.0,553.0,553.0,553.0,553.0,500,500,500,526.0,812.0,553.0
0,27.0,345.0,45.0,499.0,325.0,527.0,500.46666666666664,330.1,541.7333333333333,500.0,500.0,500.0,500.0,500.0,500.0,500.0,499.0,499.0,499.0,499.0,499.0,499.0,499.0,499.0,499.0,499.0,499.0,499.0,499.0,334.0,334.0,334.0,334.0,334.0,334.0,334.0,325.0,325.0,325.0,325.0,325.0,325.0,325.0,325.0,325.0,325.0,325.0,325.0,325.0,553.0,553.0,553.0,553.0,553.0,553.0,553.0,527.0,527.0,527.0,527.0,527.0,527.0,527.0,527.0,527.0,527.0,527.0,527.0,527.0,500,500,500,500.0,334.0,553.0
0,40.0,308.0,67.0,497.0,325.0,486.0,509.1,369.3666666666667,517.4,499.0,499.0,499.0,499.0,499.0,499.0,499.0,499.0,537.0,537.0,537.0,537.0,537.0,537.0,537.0,537.0,497.0,497.0,497.0,497.0,325.0,325.0,325.0,325.0,325.0,325.0,325.0,325.0,411.0,411.0,411.0,411.0,411.0,411.0,411.0,411.0,633.0,633.0,633.0,633.0,527.0,527.0,527.0,527.0,527.0,527.0,527.0,527.0,486.0,486.0,486.0,486.0,486.0,486.0,486.0,486.0,508.0,508.0,508.0,508.0,500,500,500,537.0,633.0,527.0
0,40.0,328.0,48.0,497.0,411.0,486.0,508.1666666666667,523.1333333333333,506.1666666666667,537.0,537.0,537.0,497.0,497.0,497.0,497.0,497.0,497.0,497.0,497.0,497.0,497.0,497.0,497.0,497.0,497.0,497.0,497.0,502.0,411.0,411.0,411.0,633.0,633.0,633.0,633.0,633.0,633.0,633.0,633.0,633.0,633.0,633.0,633.0,633.0,633.0,633.0,633.0,653.0,486.0,486.0,486.0,508.0,508.0,508.0,508.0,508.0,508.0,508.0,508.0,508.0,508.0,508.0,508.0,508.0,508.0,508.0,508.0,534.0,500,500,500,537.0,653.0,534.0
0,25.0,57.0,40.0,497.0,633.0,494.0,502.3333333333333,648.6,516.5333333333333,497.0,497.0,497.0,502.0,502.0,502.0,502.0,502.0,502.0,502.0,502.0,502.0,502.0,502.0,502.0,522.0,522.0,522.0,522.0,522.0,633.0,633.0,633.0,653.0,653.0,653.0,653.0,653.0,653.0,653.0,653.0,653.0,653.0,653.0,653.0,690.0,690.0,690.0,690.0,690.0,508.0,508.0,508.0,534.0,534.0,534.0,534.0,534.0,534.0,534.0,534.0,534.0,534.0,534.0,534.0,494.0,494.0,494.0,494.0,494.0,500,500,500,522.0,690.0,534.0
0,48.0,156.0,46.0,474.0,653.0,494.0,506.6666666666667,696.2666666666667,516.3333333333334,502.0,522.0,522.0,522.0,522.0,522.0,522.0,522.0,522.0,522.0,522.0,522.0,522.0,522.0,474.0,474.0,474.0,474.0,474.0,474.0,653.0,690.0,690.0,690.0,690.0,690.0,690.0,690.0,690.0,690.0,690.0,690.0,690.0,690.0,809.0,809.0,809.0,809.0,809.0,809.0,534.0,494.0,494.0,494.0,494.0,494.0,494.0,494.0,494.0,494.0,494.0,494.0,494.0,494.0,540.0,540.0,540.0,540.0,540.0,540.0,500,500,500,522.0,809.0,540.0
0,90.0,119.0,46.0,474.0,714.0,494.0,481.8,793.9333333333333,533.8666666666667,474.0,474.0,474.0,474.0,474.0,474.0,474.0,474.0,474.0,474.0,474.0,474.0,474.0,474.0,474.0,474.0,474.0,564.0,564.0,564.0,809.0,809.0,809.0,809.0,809.0,809.0,809.0,809.0,809.0,809.0,809.0,809.0,809.0,809.0,809.0,809.0,809.0,714.0,714.0,714.0,540.0,540.0,540.0,540.0,540.0,540.0,540.0,540.0,540.0,540.0,540.0,540.0,540.0,540.0,540.0,540.0,540.0,494.0,494.0,494.0,500,500,500,564.0,809.0,540.0
0,90.0,163.0,46.0,474.0,714.0,494.0,525.9,765.1333333333333,511.06666666666666,474.0,564.0,564.0,564.0,564.0,564.0,564.0,564.0,564.0,564.0,564.0,564.0,564.0,513.0,513.0,513.0,513.0,513.0,513.0,513.0,809.0,714.0,714.0,714.0,714.0,714.0,714.0,714.0,714.0,714.0,714.0,714.0,714.0,877.0,877.0,877.0,877.0,877.0,877.0,877.0,540.0,494.0,494.0,494.0,494.0,494.0,494.0,494.0,494.0,494.0,494.0,494.0,494.0,496.0,496.0,496.0,496.0,496.0,496.0,496.0,500,500,500,564.0,877.0,540.0
0,81.0,292.0,2.0,483.0,585.0,494.0,517.9,770.8333333333334,495.06666666666666,513.0,513.0,513.0,513.0,513.0,513.0,513.0,513.0,513.0,513.0,513.0,513.0,513.0,483.0,483.0,483.0,483.0,483.0,483.0,483.0,877.0,877.0,877.0,877.0,877.0,877.0,877.0,877.0,877.0,877.0,877.0,877.0,877.0,585.0,585.0,585.0,585.0,585.0,585.0,585.0,496.0,496.0,496.0,496.0,496.0,496.0,496.0,496.0,496.0,496.0,496.0,496.0,496.0,494.0,494.0,494.0,494.0,494.0,494.0,494.0,500,500,500,513.0,877.0,496.0
0,42.0,305.0,38.0,471.0,572.0,494.0,479.2,589.5333333333333,509.26666666666665,483.0,483.0,483.0,483.0,483.0,483.0,483.0,471.0,471.0,471.0,471.0,471.0,471.0,471.0,471.0,471.0,471.0,471.0,542.0,542.0,585.0,585.0,585.0,585.0,585.0,585.0,585.0,572.0,572.0,572.0,572.0,572.0,572.0,572.0,572.0,572.0,572.0,572.0,781.0,781.0,494.0,494.0,494.0,494.0,494.0,494.0,494.0,532.0,532.0,532.0,532.0,532.0,532.0,532.0,532.0,532.0,532.0,532.0,483.0,483.0,500,500,500,483.0,585.0,532.0
0,46.0,58.0,17.0,496.0,723.0,466.0,519.0,752.0,474.5,542.0,542.0,542.0,542.0,542.0,496.0,496.0,496.0,496.0,496.0,496.0,496.0,496.0,496.0,496.0,496.0,496.0,496.0,496.0,496.0,781.0,781.0,781.0,781.0,781.0,723.0,723.0,723.0,723.0,723.0,723.0,723.0,723.0,723.0,723.0,723.0,723.0,723.0,723.0,723.0,483.0,483.0,483.0,483.0,483.0,466.0,466.0,466.0,466.0,466.0,466.0,466.0,466.0,466.0,466.0,466.0,466.0,466.0,466.0,466.0,500,500,500,542.0,781.0,483.0
0,41.0,400.0,59.0,496.0,323.0,466.0,506.1,554.4666666666667,484.3666666666667,496.0,496.0,496.0,496.0,496.0,496.0,496.0,510.0,510.0,510.0,510.0,510.0,510.0,510.0,537.0,537.0,537.0,537.0,537.0,537.0,723.0,723.0,723.0,723.0,723.0,723.0,723.0,323.0,323.0,323.0,323.0,323.0,323.0,323.0,347.0,347.0,347.0,347.0,347.0,347.0,466.0,466.0,466.0,466.0,466.0,466.0,466.0,525.0,525.0,525.0,525.0,525.0,525.0,525.0,489.0,489.0,489.0,489.0,489.0,489.0,500,500,500,537.0,723.0,525.0
0,16.0,96.0,46.0,521.0,347.0,489.0,531.1333333333333,382.2,505.8666666666667,537.0,537.0,537.0,537.0,537.0,537.0,537.0,537.0,537.0,521.0,521.0,521.0,521.0,521.0,521.0,521.0,521.0,521.0,521.0,521.0,347.0,347.0,347.0,347.0,347.0,347.0,347.0,347.0,347.0,443.0,443.0,443.0,443.0,443.0,443.0,443.0,443.0,443.0,443.0,443.0,489.0,489.0,489.0,489.0,489.0,489.0,489.0,489.0,489.0,535.0,535.0,535.0,535.0,535.0,535.0,535.0,535.0,535.0,535.0,535.0,500,500,500,537.0,443.0,535.0
0,25.0,352.0,46.0,521.0,153.0,490.0,528.1333333333333,394.2,516.6666666666666,521.0,521.0,521.0,521.0,521.0,521.0,546.0,546.0,546.0,546.0,546.0,529.0,529.0,529.0,529.0,529.0,529.0,529.0,529.0,529.0,443.0,443.0,443.0,443.0,443.0,443.0,505.0,505.0,505.0,505.0,505.0,153.0,153.0,153.0,153.0,153.0,153.0,153.0,153.0,153.0,535.0,535.0,535.0,535.0,535.0,535.0,490.0,490.0,490.0,490.0,490.0,496.0,496.0,496.0,496.0,496.0,496.0,496.0,496.0,496.0,500,500,500,546.0,505.0,535.0
0,20.0,352.0,21.0,526.0,153.0,496.0,529.6333333333333,234.96666666666667,498.1,529.0,529.0,529.0,529.0,529.0,529.0,529.0,529.0,529.0,529.0,529.0,529.0,529.0,529.0,529.0,526.0,526.0,526.0,526.0,526.0,153.0,153.0,153.0,153.0,153.0,153.0,153.0,153.0,153.0,153.0,153.0,153.0,153.0,153.0,153.0,504.0,504.0,504.0,504.0,504.0,496.0,496.0,496.0,496.0,496.0,496.0,496.0,496.0,496.0,496.0,496.0,496.0,496.0,496.0,496.0,511.0,511.0,511.0,511.0,511.0,500,500,500,529.0,504.0,511.0
0,5.0,351.0,20.0,526.0,451.0,511.0,527.8,453.0,511.0,526.0,526.0,526.0,526.0,526.0,526.0,526.0,526.0,526.0,531.0,531.0,531.0,531.0,531.0,531.0,531.0,531.0,531.0,531.0,531.0,504.0,504.0,504.0,504.0,504.0,504.0,504.0,504.0,504.0,451.0,451.0,451.0,451.0,451.0,451.0,451.0,451.0,451.0,451.0,451.0,511.0,511.0,511.0,511.0,511.0,511.0,511.0,511.0,511.0,516.0,516.0,516.0,516.0,516.0,516.0,516.0,516.0,516.0,516.0,516.0,500,500,500,531.0,504.0,516.0
0,35.0,296.0,28.0,496.0,451.0,516.0,519.0333333333333,547.7666666666667,525.2,531.0,531.0,531.0,531.0,531.0,531.0,531.0,496.0,496.0,496.0,496.0,496.0,508.0,508.0,508.0,508.0,508.0,508.0,508.0,508.0,451.0,451.0,451.0,451.0,451.0,451.0,451.0,558.0,558.0,558.0,558.0,558.0,747.0,747.0,747.0,747.0,747.0,747.0,747.0,747.0,516.0,516.0,516.0,516.0,516.0,516.0,516.0,544.0,544.0,544.0,544.0,544.0,533.0,533.0,533.0,533.0,533.0,533.0,533.0,533.0,500,500,500,531.0,747.0,544.0
0,28.0,189.0,43.0,480.0,639.0,501.0,499.2,708.3,523.7666666666667,508.0,508.0,508.0,508.0,508.0,508.0,508.0,508.0,480.0,480.0,480.0,480.0,480.0,480.0,480.0,480.0,480.0,480.0,480.0,480.0,747.0,747.0,747.0,747.0,747.0,747.0,747.0,747.0,639.0,639.0,639.0,639.0,639.0,639.0,639.0,639.0,639.0,639.0,639.0,639.0,533.0,533.0,533.0,533.0,533.0,533.0,533.0,533.0,501.0,501.0,501.0,501.0,501.0,501.0,501.0,501.0,501.0,501.0,501.0,501.0,500,500,500,508.0,747.0,533.0
0,35.0,637.0,20.0,480.0,2.0,501.0,495.1666666666667,362.96666666666664,509.6666666666667,480.0,480.0,480.0,480.0,480.0,480.0,480.0,515.0,515.0,515.0,515.0,515.0,515.0,515.0,515.0,515.0,515.0,515.0,515.0,515.0,639.0,639.0,639.0,639.0,639.0,639.0,639.0,2.0,2.0,2.0,2.0,2.0,2.0,2.0,2.0,2.0,2.0,2.0,2.0,2.0,501.0,501.0,501.0,501.0,501.0,501.0,501.0,521.0,521.0,521.0,521.0,521.0,521.0,521.0,521.0,521.0,521.0,521.0,521.0,521.0,500,500,500,515.0,639.0,521.0
0,30.0,8.0,59.0,512.0,2.0,462.0,518.1,5.9,490.96666666666664,515.0,512.0,512.0,512.0,512.0,512.0,512.0,512.0,512.0,512.0,512.0,512.0,512.0,512.0,512.0,542.0,542.0,542.0,542.0,542.0,2.0,10.0,10.0,10.0,10.0,10.0,10.0,10.0,10.0,10.0,10.0,10.0,10.0,10.0,10.0,3.0,3.0,3.0,3.0,3.0,521.0,462.0,462.0,462.0,462.0,462.0,462.0,462.0,462.0,462.0,462.0,462.0,462.0,462.0,462.0,506.0,506.0,506.0,506.0,506.0,500,500,500,542.0,10.0,521.0
0,30.0,34.0,46.0,519.0,3.0,506.0,533.7,7.8,497.4,542.0,542.0,542.0,542.0,542.0,542.0,542.0,542.0,542.0,542.0,542.0,542.0,519.0,519.0,519.0,519.0,519.0,519.0,519.0,519.0,3.0,3.0,3.0,3.0,3.0,3.0,3.0,3.0,3.0,3.0,3.0,3.0,37.0,37.0,37.0,37.0,37.0,37.0,37.0,37.0,506.0,506.0,506.0,506.0,506.0,506.0,506.0,506.0,506.0,506.0,506.0,506.0,508.0,508.0,508.0,508.0,508.0,508.0,508.0,508.0,500,500,500,542.0,37.0,508.0
0,53.0,107.0,12.0,489.0,37.0,508.0,517.3666666666667,46.1,509.8666666666667,519.0,519.0,519.0,519.0,519.0,519.0,519.0,519.0,519.0,519.0,519.0,519.0,519.0,489.0,489.0,489.0,489.0,489.0,489.0,489.0,37.0,37.0,37.0,37.0,37.0,37.0,37.0,37.0,37.0,37.0,37.0,37.0,37.0,110.0,110.0,110.0,110.0,110.0,110.0,110.0,508.0,508.0,508.0,508.0,508.0,508.0,508.0,508.0,508.0,508.0,508.0,508.0,508.0,518.0,518.0,518.0,518.0,518.0,518.0,518.0,500,500,500,519.0,110.0,518.0
0,35.0,160.0,12.0,484.0,110.0,506.0,493.5,106.53333333333333,515.1333333333333,489.0,489.0,489.0,489.0,489.0,489.0,489.0,489.0,489.0,489.0,489.0,489.0,489.0,489.0,489.0,489.0,489.0,484.0,484.0,484.0,110.0,110.0,110.0,110.0,110.0,110.0,110.0,110.0,110.0,110.0,110.0,110.0,110.0,110.0,110.0,110.0,110.0,197.0,197.0,197.0,518.0,518.0,518.0,518.0,518.0,518.0,518.0,518.0,518.0,518.0,518.0,518.0,518.0,518.0,518.0,518.0,518.0,506.0,506.0,506.0,500,500,500,489.0,197.0,518.0
0,71.0,190.0,34.0,484.0,197.0,506.0,490.06666666666666,180.66666666666666,512.2,484.0,484.0,484.0,484.0,484.0,484.0,484.0,484.0,484.0,484.0,484.0,484.0,484.0,484.0,484.0,555.0,555.0,555.0,555.0,555.0,197.0,197.0,197.0,197.0,197.0,197.0,197.0,197.0,197.0,197.0,197.0,197.0,197.0,197.0,197.0,300.0,300.0,300.0,300.0,300.0,506.0,506.0,506.0,506.0,506.0,506.0,506.0,506.0,506.0,506.0,506.0,506.0,506.0,506.0,506.0,540.0,540.0,540.0,540.0,540.0,500,500,500,555.0,300.0,540.0
0,44.0,70.0,46.0,511.0,300.0,494.0,538.8666666666667,325.6666666666667,523.1333333333333,555.0,555.0,555.0,555.0,555.0,555.0,555.0,511.0,511.0,511.0,511.0,511.0,511.0,511.0,511.0,511.0,511.0,511.0,511.0,511.0,300.0,300.0,300.0,300.0,300.0,300.0,300.0,370.0,370.0,370.0,370.0,370.0,370.0,370.0,370.0,370.0,370.0,370.0,370.0,370.0,540.0,540.0,540.0,540.0,540.0,540.0,540.0,494.0,494.0,494.0,494.0,494.0,494.0,494.0,494.0,494.0,494.0,494.0,494.0,494.0,500,500,500,555.0,370.0,540.0
0,56.0,651.0,41.0,455.0,370.0,509.0,484.2,573.3,511.3,481.0,481.0,481.0,481.0,481.0,481.0,481.0,481.0,481.0,481.0,455.0,455.0,455.0,455.0,455.0,455.0,455.0,455.0,455.0,455.0,394.0,394.0,394.0,394.0,394.0,394.0,394.0,394.0,394.0,394.0,1021.0,1021.0,1021.0,1021.0,1021.0,1021.0,1021.0,1021.0,1021.0,1021.0,509.0,509.0,509.0,509.0,509.0,509.0,509.0,509.0,509.0,509.0,535.0,535.0,535.0,535.0,535.0,535.0,535.0,535.0,535.0,535.0,500,500,500,481.0,1021.0,535.0
0,30.0,628.0,32.0,455.0,1000.0,532.0,467.06666666666666,998.3333333333334,535.8333333333334,455.0,455.0,455.0,455.0,455.0,455.0,455.0,485.0,485.0,485.0,485.0,485.0,485.0,485.0,485.0,485.0,485.0,467.0,467.0,467.0,1021.0,1021.0,1021.0,1021.0,1021.0,1021.0,1021.0,1022.0,1022.0,1022.0,1022.0,1022.0,1022.0,1022.0,1022.0,1022.0,1022.0,1000.0,1000.0,1000.0,535.0,535.0,535.0,535.0,535.0,535.0,535.0,541.0,541.0,541.0,541.0,541.0,541.0,541.0,541.0,541.0,541.0,532.0,532.0,532.0,500,500,500,485.0,1022.0,541.0
0,32.0,184.0,46.0,467.0,838.0,495.0,483.4,939.6,519.0,467.0,467.0,467.0,467.0,467.0,467.0,467.0,499.0,499.0,499.0,499.0,499.0,499.0,499.0,499.0,499.0,499.0,499.0,499.0,499.0,1000.0,1000.0,1000.0,1000.0,1000.0,1000.0,1000.0,838.0,838.0,838.0,838.0,838.0,838.0,838.0,838.0,838.0,838.0,838.0,838.0,838.0,532.0,532.0,532.0,532.0,532.0,532.0,532.0,495.0,495.0,495.0,495.0,495.0,495.0,495.0,495.0,495.0,495.0,495.0,495.0,495.0,500,500,500,499.0,1000.0,532.0
0,15.0,543.0,22.0,499.0,295.0,495.0,505.5,602.7,504.53333333333336,499.0,499.0,499.0,499.0,499.0,499.0,499.0,514.0,514.0,514.0,514.0,514.0,514.0,514.0,514.0,514.0,514.0,514.0,514.0,514.0,838.0,838.0,838.0,838.0,838.0,838.0,838.0,295.0,295.0,295.0,295.0,295.0,295.0,295.0,295.0,295.0,295.0,295.0,295.0,295.0,495.0,495.0,495.0,495.0,495.0,495.0,495.0,517.0,517.0,517.0,517.0,517.0,517.0,517.0,517.0,517.0,517.0,517.0,517.0,517.0,500,500,500,514.0,838.0,517.0
0,17.0,77.0,27.0,498.0,295.0,498.0,509.53333333333336,330.76666666666665,513.9666666666667,514.0,498.0,498.0,498.0,498.0,498.0,498.0,498.0,515.0,515.0,515.0,515.0,515.0,515.0,515.0,515.0,515.0,515.0,515.0,515.0,295.0,372.0,372.0,372.0,372.0,372.0,372.0,372.0,333.0,333.0,333.0,333.0,333.0,333.0,333.0,333.0,333.0,333.0,333.0,333.0,517.0,498.0,498.0,498.0,498.0,498.0,498.0,498.0,525.0,525.0,525.0,525.0,525.0,525.0,525.0,525.0,525.0,525.0,525.0,525.0,500,500,500,515.0,372.0,525.0
0,17.0,81.0,27.0,504.0,333.0,512.0,510.53333333333336,354.4,518.8,515.0,515.0,515.0,515.0,515.0,515.0,515.0,515.0,515.0,515.0,515.0,515.0,515.0,515.0,504.0,504.0,504.0,504.0,504.0,504.0,333.0,333.0,333.0,333.0,333.0,333.0,333.0,333.0,333.0,333.0,333.0,333.0,333.0,333.0,414.0,414.0,414.0,414.0,414.0,414.0,525.0,525.0,525.0,525.0,525.0,525.0,525.0,525.0,525.0,525.0,525.0,525.0,525.0,525.0,512.0,512.0,512.0,512.0,512.0,512.0,500,500,500,515.0,414.0,525.0
0,15.0,408.0,13.0,504.0,333.0,512.0,510.26666666666665,411.6,518.2333333333333,515.0,515.0,515.0,504.0,504.0,504.0,504.0,504.0,504.0,504.0,504.0,504.0,504.0,504.0,504.0,504.0,504.0,519.0,519.0,519.0,333.0,333.0,333.0,414.0,414.0,414.0,414.0,414.0,414.0,414.0,414.0,414.0,414.0,414.0,414.0,414.0,414.0,741.0,741.0,741.0,525.0,525.0,525.0,512.0,512.0,512.0,512.0,512.0,512.0,512.0,512.0,512.0,512.0,512.0,512.0,512.0,512.0,518.0,518.0,518.0,500,500,500,519.0,741.0,525.0
0,23.0,327.0,23.0,519.0,694.0,495.0,517.1666666666666,627.2333333333333,508.53333333333336,519.0,519.0,519.0,519.0,519.0,519.0,519.0,519.0,527.0,527.0,527.0,527.0,527.0,527.0,527.0,527.0,527.0,527.0,527.0,527.0,741.0,741.0,741.0,741.0,741.0,741.0,741.0,741.0,694.0,694.0,694.0,694.0,694.0,694.0,694.0,694.0,694.0,694.0,694.0,694.0,518.0,518.0,518.0,518.0,518.0,518.0,518.0,518.0,495.0,495.0,495.0,495.0,495.0,495.0,495.0,495.0,495.0,495.0,495.0,495.0,500,500,500,527.0,741.0,518.0
0,36.0,320.0,62.0,495.0,421.0,495.0,523.1333333333333,664.9333333333333,507.3666666666667,527.0,527.0,527.0,527.0,527.0,527.0,527.0,527.0,527.0,531.0,531.0,531.0,531.0,531.0,531.0,531.0,495.0,495.0,495.0,495.0,694.0,694.0,694.0,694.0,694.0,694.0,694.0,694.0,694.0,712.0,712.0,712.0,712.0,712.0,712.0,712.0,421.0,421.0,421.0,421.0,495.0,495.0,495.0,495.0,495.0,495.0,495.0,495.0,495.0,506.0,506.0,506.0,506.0,506.0,506.0,506.0,557.0,557.0,557.0,557.0,500,500,500,531.0,712.0,557.0
0,36.0,531.0,62.0,495.0,181.0,537.0,505.73333333333335,459.1,536.9666666666667,495.0,495.0,495.0,495.0,495.0,495.0,495.0,495.0,495.0,495.0,495.0,495.0,495.0,496.0,496.0,496.0,496.0,496.0,496.0,496.0,421.0,421.0,421.0,421.0,421.0,421.0,421.0,421.0,421.0,421.0,421.0,421.0,181.0,181.0,181.0,181.0,181.0,181.0,181.0,181.0,557.0,557.0,557.0,557.0,557.0,557.0,557.0,557.0,557.0,557.0,557.0,557.0,537.0,537.0,537.0,537.0,537.0,537.0,537.0,537.0,500,500,500,496.0,421.0,557.0
0,22.0,379.0,43.0,474.0,42.0,537.0,492.8666666666667,210.46666666666667,546.7333333333333,496.0,496.0,496.0,496.0,496.0,496.0,496.0,496.0,496.0,496.0,496.0,496.0,496.0,474.0,474.0,474.0,474.0,474.0,474.0,474.0,181.0,181.0,181.0,181.0,181.0,181.0,181.0,181.0,181.0,181.0,181.0,181.0,181.0,42.0,42.0,42.0,42.0,42.0,42.0,42.0,537.0,537.0,537.0,537.0,537.0,537.0,537.0,537.0,537.0,537.0,537.0,537.0,537.0,580.0,580.0,580.0,580.0,580.0,580.0,580.0,500,500,500,496.0,181.0,580.0
0,20.0,93.0,23.0,471.0,3.0,557.0,480.0,40.8,569.7333333333333,471.0,471.0,471.0,471.0,471.0,471.0,471.0,471.0,491.0,491.0,491.0,491.0,491.0,491.0,491.0,491.0,491.0,491.0,491.0,491.0,96.0,96.0,96.0,96.0,96.0,96.0,96.0,96.0,3.0,3.0,3.0,3.0,3.0,3.0,3.0,3.0,3.0,3.0,3.0,3.0,576.0,576.0,576.0,576.0,576.0,576.0,576.0,576.0,557.0,557.0,557.0,557.0,557.0,557.0,557.0,557.0,557.0,557.0,557.0,557.0,500,500,500,491.0,96.0,576.0
0,45.0,219.0,66.0,491.0,3.0,491.0,509.8,105.7,537.2,491.0,491.0,491.0,491.0,536.0,536.0,536.0,536.0,536.0,536.0,536.0,536.0,536.0,536.0,536.0,499.0,499.0,499.0,499.0,499.0,3.0,3.0,3.0,3.0,205.0,205.0,205.0,205.0,205.0,205.0,205.0,205.0,205.0,205.0,205.0,222.0,222.0,222.0,222.0,222.0,557.0,557.0,557.0,557.0,524.0,524.0,524.0,524.0,524.0,524.0,524.0,524.0,524.0,524.0,524.0,491.0,491.0,491.0,491.0,491.0,500,500,500,536.0,222.0,557.0
0,37.0,182.0,33.0,499.0,222.0,491.0,507.1666666666667,270.3666666666667,494.4,499.0,499.0,499.0,499.0,499.0,499.0,499.0,499.0,499.0,499.0,499.0,518.0,518.0,518.0,518.0,518.0,518.0,518.0,518.0,518.0,222.0,222.0,222.0,222.0,222.0,222.0,222.0,222.0,222.0,222.0,222.0,387.0,387.0,387.0,387.0,387.0,387.0,387.0,387.0,387.0,491.0,491.0,491.0,491.0,491.0,491.0,491.0,491.0,491.0,491.0,491.0,495.0,495.0,495.0,495.0,495.0,495.0,495.0,495.0,495.0,500,500,500,518.0,387.0,495.0
0,70.0,797.0,8.0,518.0,387.0,487.0,530.9666666666667,576.6,492.6,518.0,518.0,518.0,518.0,518.0,518.0,518.0,518.0,518.0,518.0,518.0,569.0,569.0,569.0,569.0,569.0,569.0,569.0,569.0,569.0,387.0,387.0,387.0,387.0,387.0,387.0,387.0,387.0,387.0,387.0,387.0,1019.0,1019.0,1019.0,1019.0,1019.0,1019.0,1019.0,1019.0,1019.0,495.0,495.0,495.0,495.0,495.0,495.0,495.0,495.0,495.0,495.0,495.0,487.0,487.0,487.0,487.0,487.0,487.0,487.0,487.0,487.0,500,500,500,569.0,1019.0,495.0
0,37.0,619.0,39.0,532.0,400.0,487.0,550.4,830.9,508.9,569.0,569.0,532.0,532.0,532.0,532.0,532.0,532.0,532.0,532.0,532.0,544.0,544.0,544.0,544.0,544.0,544.0,544.0,544.0,544.0,1019.0,1019.0,1011.0,1011.0,1011.0,1011.0,1011.0,1011.0,1011.0,1011.0,1011.0,400.0,400.0,400.0,400.0,400.0,400.0,400.0,400.0,400.0,487.0,487.0,521.0,521.0,521.0,521.0,521.0,521.0,521.0,521.0,521.0,526.0,526.0,526.0,526.0,526.0,526.0,526.0,526.0,526.0,500,500,500,569.0,1019.0,526.0
0,12.0,801.0,9.0,534.0,210.0,517.0,541.4,462.46666666666664,524.4333333333333,544.0,544.0,544.0,544.0,544.0,544.0,544.0,544.0,544.0,544.0,544.0,544.0,544.0,544.0,544.0,534.0,534.0,534.0,534.0,534.0,400.0,400.0,400.0,400.0,400.0,400.0,400.0,400.0,400.0,400.0,400.0,400.0,400.0,400.0,400.0,210.0,210.0,210.0,210.0,210.0,526.0,526.0,526.0,526.0,526.0,526.0,526.0,526.0,526.0,526.0,526.0,526.0,526.0,526.0,526.0,517.0,517.0,517.0,517.0,517.0,500,500,500,544.0,400.0,526.0
0,36.0,469.0,11.0,508.0,210.0,515.0,528.4,369.7,517.3,534.0,534.0,534.0,534.0,534.0,534.0,534.0,534.0,534.0,534.0,508.0,508.0,508.0,508.0,508.0,508.0,508.0,508.0,508.0,508.0,210.0,210.0,210.0,210.0,210.0,210.0,210.0,210.0,210.0,210.0,679.0,679.0,679.0,679.0,679.0,679.0,679.0,679.0,679.0,679.0,517.0,517.0,517.0,517.0,517.0,517.0,517.0,517.0,517.0,517.0,515.0,515.0,515.0,515.0,515.0,515.0,515.0,515.0,515.0,515.0,500,500,500,534.0,679.0,517.0
0,26.0,480.0,20.0,508.0,679.0,497.0,514.4333333333333,633.9333333333333,512.2,508.0,508.0,508.0,508.0,508.0,508.0,508.0,508.0,508.0,508.0,508.0,508.0,508.0,508.0,508.0,531.0,531.0,531.0,531.0,531.0,679.0,679.0,679.0,679.0,679.0,679.0,679.0,679.0,679.0,679.0,679.0,679.0,679.0,679.0,679.0,690.0,690.0,690.0,690.0,690.0,515.0,515.0,515.0,515.0,515.0,515.0,515.0,515.0,515.0,515.0,515.0,515.0,515.0,515.0,515.0,497.0,497.0,497.0,497.0,497.0,500,500,500,531.0,690.0,515.0
0,37.0,166.0,51.0,494.0,524.0,464.0,515.2333333333333,646.0333333333333,500.23333333333335,531.0,531.0,531.0,531.0,531.0,531.0,531.0,531.0,531.0,531.0,531.0,531.0,494.0,495.0,495.0,495.0,495.0,495.0,495.0,495.0,690.0,690.0,690.0,690.0,690.0,690.0,690.0,690.0,690.0,690.0,690.0,690.0,621.0,524.0,524.0,524.0,524.0,524.0,524.0,524.0,497.0,497.0,497.0,497.0,497.0,497.0,497.0,497.0,497.0,497.0,497.0,497.0,464.0,495.0,495.0,495.0,495.0,495.0,495.0,495.0,500,500,500,531.0,690.0,497.0
0,39.0,259.0,492.0,492.0,431.0,5.0,503.06666666666666,556.6666666666666,445.43333333333334,495.0,495.0,495.0,495.0,495.0,495.0,495.0,495.0,495.0,495.0,495.0,495.0,495.0,495.0,495.0,492.0,492.0,492.0,492.0,492.0,524.0,524.0,524.0,524.0,524.0,524.0,524.0,524.0,524.0,524.0,524.0,524.0,524.0,524.0,524.0,431.0,431.0,431.0,431.0,431.0,495.0,495.0,495.0,495.0,495.0,495.0,495.0,495.0,495.0,495.0,495.0,495.0,495.0,495.0,495.0,5.0,5.0,5.0,5.0,5.0,500,500,500,495.0,524.0,495.0
0,28.0,480.0,490.0,492.0,44.0,5.0,497.46666666666664,391.3,217.16666666666666,492.0,492.0,492.0,492.0,492.0,492.0,492.0,492.0,492.0,492.0,492.0,492.0,492.0,492.0,492.0,520.0,520.0,520.0,520.0,520.0,431.0,431.0,431.0,431.0,431.0,431.0,431.0,431.0,431.0,431.0,431.0,431.0,431.0,431.0,431.0,44.0,44.0,44.0,44.0,44.0,5.0,5.0,5.0,5.0,5.0,5.0,5.0,5.0,5.0,5.0,5.0,5.0,5.0,5.0,5.0,494.0,494.0,494.0,494.0,494.0,500,500,500,520.0,431.0,494.0
0,15.0,762.0,42.0,505.0,806.0,536.0,510.0,552.0,522.0,505.0,505.0,505.0,505.0,505.0,505.0,505.0,505.0,505.0,505.0,505.0,505.0,505.0,505.0,505.0,505.0,505.0,505.0,505.0,505.0,806.0,806.0,806.0,806.0,806.0,806.0,806.0,806.0,806.0,806.0,806.0,806.0,806.0,806.0,806.0,806.0,806.0,806.0,806.0,806.0,536.0,536.0,536.0,536.0,536.0,536.0,536.0,536.0,536.0,536.0,536.0,536.0,536.0,536.0,536.0,536.0,536.0,536.0,536.0,536.0,500,500,500,505.0,806.0,536.0
0,21.0,867.0,62.0,525.0,155.0,474.0,518.6,718.8,503.73333333333335,526.0,526.0,526.0,526.0,526.0,526.0,526.0,525.0,525.0,525.0,525.0,525.0,525.0,525.0,525.0,525.0,525.0,525.0,525.0,525.0,155.0,155.0,155.0,155.0,155.0,155.0,155.0,1022.0,1022.0,1022.0,1022.0,1022.0,1022.0,1022.0,1022.0,1022.0,1022.0,1022.0,1022.0,1022.0,508.0,508.0,508.0,508.0,508.0,508.0,508.0,474.0,474.0,474.0,474.0,474.0,474.0,474.0,474.0,474.0,474.0,474.0,474.0,474.0,500,500,500,526.0,1022.0,508.0
0,83.0,136.0,46.0,547.0,886.0,491.0,566.1,963.0666666666667,497.9,547.0,547.0,547.0,547.0,547.0,547.0,608.0,608.0,608.0,608.0,608.0,608.0,608.0,608.0,608.0,608.0,608.0,608.0,608.0,608.0,1022.0,1022.0,1022.0,1022.0,1022.0,1022.0,886.0,886.0,886.0,886.0,886.0,886.0,886.0,886.0,886.0,886.0,886.0,886.0,886.0,886.0,491.0,491.0,491.0,491.0,491.0,520.0,520.0,520.0,520.0,520.0,520.0,520.0,520.0,520.0,520.0,520.0,520.0,520.0,520.0,520.0,500,500,500,608.0,1022.0,520.0
0,94.0,356.0,15.0,514.0,530.0,518.0,561.0,819.0666666666667,526.0,608.0,608.0,608.0,608.0,514.0,514.0,514.0,514.0,514.0,514.0,514.0,514.0,514.0,514.0,514.0,514.0,514.0,514.0,514.0,514.0,886.0,886.0,886.0,886.0,768.0,768.0,768.0,768.0,768.0,768.0,768.0,768.0,768.0,768.0,768.0,768.0,530.0,530.0,530.0,530.0,520.0,520.0,520.0,520.0,533.0,533.0,533.0,533.0,533.0,533.0,533.0,533.0,533.0,533.0,533.0,533.0,518.0,518.0,518.0,518.0,500,500,500,608.0,886.0,533.0
0,0.0,238.0,15.0,514.0,530.0,518.0,514.0,561.7333333333333,520.0,514.0,514.0,514.0,514.0,514.0,514.0,514.0,514.0,514.0,514.0,514.0,514.0,514.0,514.0,514.0,514.0,514.0,514.0,514.0,514.0,530.0,530.0,530.0,530.0,530.0,530.0,530.0,530.0,530.0,530.0,530.0,530.0,530.0,530.0,530.0,530.0,530.0,530.0,530.0,530.0,518.0,518.0,518.0,518.0,518.0,518.0,518.0,518.0,518.0,518.0,518.0,518.0,518.0,518.0,518.0,518.0,518.0,518.0,518.0,518.0,500,500,500,514.0,530.0,518.0
0,6.0,486.0,24.0,514.0,44.0,494.0,514.6,481.4,515.6,514.0,514.0,514.0,514.0,514.0,514.0,514.0,514.0,514.0,514.0,514.0,514.0,514.0,514.0,514.0,514.0,514.0,520.0,520.0,520.0,530.0,530.0,530.0,530.0,530.0,530.0,530.0,530.0,530.0,530.0,530.0,530.0,530.0,530.0,530.0,530.0,530.0,44.0,44.0,44.0,518.0,518.0,518.0,518.0,518.0,518.0,518.0,518.0,518.0,518.0,518.0,518.0,518.0,518.0,518.0,518.0,518.0,494.0,494.0,494.0,500,500,500,520.0,530.0,518.0
0,15.0,762.0,42.0,505.0,44.0,494.0,516.0,307.6,507.6,520.0,520.0,520.0,520.0,520.0,520.0,520.0,520.0,520.0,520.0,520.0,520.0,520.0,520.0,520.0,505.0,505.0,505.0,505.0,505.0,44.0,44.0,44.0,44.0,44.0,44.0,44.0,44.0,44.0,44.0,44.0,44.0,44.0,44.0,44.0,806.0,806.0,806.0,806.0,806.0,494.0,494.0,494.0,494.0,494.0,494.0,494.0,494.0,494.0,494.0,494.0,494.0,494.0,494.0,494.0,536.0,536.0,536.0,536.0,536.0,500,500,500,520.0,806.0,536.0
0,21.0,867.0,62.0,505.0,155.0,474.0,514.6,675.6,516.1333333333333,505.0,505.0,505.0,505.0,505.0,505.0,526.0,526.0,526.0,526.0,526.0,526.0,526.0,526.0,525.0,525.0,525.0,525.0,525.0,525.0,806.0,806.0,806.0,806.0,806.0,806.0,155.0,155.0,155.0,155.0,155.0,155.0,155.0,155.0,1022.0,1022.0,1022.0,1022.0,1022.0,1022.0,536.0,536.0,536.0,536.0,536.0,536.0,508.0,508.0,508.0,508.0,508.0,508.0,508.0,508.0,474.0,474.0,474.0,474.0,474.0,474.0,500,500,500,526.0,1022.0,536.0
0,22.0,867.0,34.0,525.0,1022.0,474.0,528.8333333333334,877.5,482.5,525.0,525.0,525.0,525.0,525.0,525.0,525.0,525.0,525.0,525.0,525.0,525.0,525.0,525.0,547.0,547.0,547.0,547.0,547.0,547.0,1022.0,1022.0,1022.0,1022.0,1022.0,1022.0,1022.0,1022.0,1022.0,1022.0,1022.0,1022.0,1022.0,1022.0,1022.0,1022.0,1022.0,1022.0,1022.0,1022.0,474.0,474.0,474.0,474.0,474.0,474.0,474.0,474.0,474.0,474.0,474.0,474.0,474.0,491.0,491.0,491.0,491.0,491.0,491.0,491.0,500,500,500,547.0,1022.0,491.0
0,83.0,136.0,46.0,547.0,886.0,491.0,560.9,981.2,496.3,547.0,547.0,547.0,547.0,547.0,547.0,547.0,547.0,547.0,547.0,547.0,608.0,608.0,608.0,608.0,608.0,608.0,608.0,608.0,608.0,1022.0,1022.0,1022.0,1022.0,1022.0,1022.0,1022.0,1022.0,1022.0,1022.0,1022.0,886.0,886.0,886.0,886.0,886.0,886.0,886.0,886.0,886.0,491.0,491.0,491.0,491.0,491.0,491.0,491.0,491.0,491.0,491.0,491.0,520.0,520.0,520.0,520.0,520.0,520.0,520.0,520.0,520.0,500,500,500,608.0,1022.0,520.0
0,94.0,254.0,42.0,514.0,768.0,520.0,581.2333333333333,902.0,514.9666666666667,608.0,608.0,608.0,608.0,608.0,608.0,608.0,608.0,608.0,608.0,608.0,608.0,608.0,608.0,608.0,514.0,514.0,514.0,514.0,514.0,886.0,886.0,886.0,886.0,886.0,886.0,886.0,886.0,886.0,886.0,886.0,886.0,886.0,886.0,886.0,768.0,768.0,768.0,768.0,768.0,520.0,520.0,520.0,520.0,520.0,520.0,520.0,520.0,520.0,520.0,520.0,520.0,520.0,520.0,520.0,533.0,533.0,533.0,533.0,533.0,500,500,500,608.0,886.0,533.0
0,0.0,238.0,15.0,514.0,530.0,518.0,514.0,672.8,527.0,514.0,514.0,514.0,514.0,514.0,514.0,514.0,514.0,514.0,514.0,514.0,514.0,514.0,514.0,514.0,514.0,514.0,514.0,514.0,514.0,768.0,768.0,768.0,768.0,768.0,768.0,768.0,768.0,530.0,530.0,530.0,530.0,530.0,530.0,530.0,530.0,530.0,530.0,530.0,530.0,533.0,533.0,533.0,533.0,533.0,533.0,533.0,533.0,518.0,518.0,518.0,518.0,518.0,518.0,518.0,518.0,518.0,518.0,518.0,518.0,500,500,500,514.0,768.0,533.0
0,71.0,185.0,10.0,514.0,345.0,508.0,542.4,456.0,514.0,514.0,514.0,514.0,514.0,514.0,514.0,514.0,514.0,585.0,585.0,585.0,585.0,585.0,585.0,585.0,585.0,585.0,585.0,585.0,585.0,530.0,530.0,530.0,530.0,530.0,530.0,530.0,530.0,345.0,345.0,345.0,345.0,345.0,345.0,345.0,345.0,345.0,345.0,345.0,345.0,518.0,518.0,518.0,518.0,518.0,518.0,518.0,518.0,508.0,508.0,508.0,508.0,508.0,508.0,508.0,508.0,508.0,508.0,508.0,508.0,500,500,500,585.0,530.0,518.0
