,unixtime,emg0,emg1,emg2,emg0_ampl,emg1_ampl,emg2_ampl,emg0_med,emg1_med
0,1555416501.048283,476.0,456.0,458.0,96.0,275.0,333.0,512.25,513.25
1,1555416501.1171277,540.0,571.0,558.0,96.0,275.0,333.0,514.5,515.95
2,1555416501.187208,489.0,466.0,511.0,96.0,275.0,333.0,513.65,516.2
3,1555416501.2507718,475.0,457.0,482.0,96.0,275.0,333.0,511.15,508.35
4,1555416501.320086,510.0,519.0,511.0,96.0,275.0,333.0,511.85,508.0
5,1555416501.3882828,496.0,530.0,646.0,96.0,275.0,333.0,512.45,510.5
6,1555416501.4497492,502.0,538.0,415.0,96.0,275.0,337.0,512.0,514.25
7,1555416501.5201366,525.0,530.0,472.0,96.0,275.0,337.0,511.5,516.8
8,1555416501.5956576,523.0,603.0,529.0,96.0,275.0,337.0,513.75,522.75
9,1555416501.6634133,504.0,565.0,458.0,96.0,275.0,337.0,513.25,523.15
10,1555416501.7286062,498.0,537.0,502.0,96.0,275.0,337.0,510.05,520.6
11,1555416501.7982266,475.0,406.0,369.0,96.0,275.0,383.0,507.5,518.5
12,1555416501.8660767,499.0,519.0,404.0,96.0,275.0,383.0,506.2,517.1
13,1555416501.9363523,471.0,507.0,508.0,98.0,275.0,277.0,503.65,516.05
14,1555416502.0049684,404.0,411.0,385.0,165.0,275.0,277.0,497.9,508.25
15,1555416502.0805771,389.0,470.0,404.0,180.0,275.0,277.0,491.6,505.6
16,1555416502.1529033,480.0,602.0,504.0,152.0,246.0,277.0,487.15,504.1
17,1555416502.2205,535.0,576.0,522.0,151.0,246.0,277.0,486.85,507.2
18,1555416502.289738,512.0,366.0,393.0,151.0,246.0,277.0,488.8,499.3
19,1555416502.3581903,520.0,438.0,367.0,151.0,237.0,279.0,491.15,503.35
20,1555416502.4279542,589.0,446.0,437.0,200.0,237.0,279.0,496.8,502.85
21,1555416502.5197816,547.0,529.0,508.0,200.0,237.0,279.0,497.15,500.75
22,1555416502.5865712,490.0,393.0,391.0,200.0,237.0,279.0,497.2,497.1
23,1555416502.653952,514.0,571.0,437.0,200.0,237.0,279.0,499.15,502.8
24,1555416502.7213438,549.0,629.0,558.0,200.0,263.0,279.0,501.1,508.3
25,1555416502.7859619,522.0,532.0,489.0,200.0,263.0,191.0,502.4,508.4
26,1555416502.8561132,537.0,549.0,541.0,200.0,263.0,191.0,504.15,508.95
27,1555416502.9312453,521.0,481.0,462.0,200.0,263.0,191.0,503.95,506.5
28,1555416503.0056467,505.0,548.0,550.0,200.0,263.0,191.0,503.05,503.75
29,1555416503.0753217,512.0,519.0,577.0,200.0,263.0,210.0,503.45,501.45
30,1555416503.1462054,532.0,556.0,575.0,200.0,263.0,210.0,505.15,502.4
31,1555416503.2167642,531.0,582.0,676.0,200.0,263.0,309.0,507.95,511.2
32,1555416503.2889314,459.0,517.0,690.0,200.0,263.0,323.0,505.95,511.1
33,1555416503.361201,494.0,560.0,550.0,200.0,263.0,323.0,507.1,513.75
34,1555416503.4359808,521.0,516.0,548.0,200.0,263.0,323.0,512.95,519.0
35,1555416503.5080218,503.0,470.0,503.0,130.0,263.0,323.0,518.65,519.0
36,1555416503.5829716,508.0,435.0,466.0,130.0,263.0,323.0,520.05,510.65
37,1555416503.650093,516.0,525.0,567.0,130.0,263.0,323.0,519.1,508.1
38,1555416503.724661,487.0,497.0,503.0,130.0,236.0,323.0,517.85,514.65
39,1555416503.806929,409.0,425.0,562.0,180.0,236.0,299.0,512.3,514.0
40,1555416503.8801281,500.0,547.0,444.0,140.0,236.0,299.0,507.85,519.05
41,1555416503.951632,634.0,506.0,569.0,225.0,236.0,299.0,512.2,517.9
42,1555416504.0281622,549.0,627.0,697.0,225.0,204.0,260.0,515.15,529.6
43,1555416504.0961096,491.0,468.0,488.0,225.0,204.0,253.0,514.0,524.45
44,1555416504.1735444,509.0,476.0,527.0,225.0,202.0,253.0,512.0,516.8
45,1555416504.255195,551.0,510.0,690.0,225.0,202.0,253.0,513.45,515.7
46,1555416504.3368332,495.0,539.0,607.0,225.0,202.0,253.0,511.35,515.2
47,1555416504.4046862,499.0,455.0,436.0,225.0,202.0,261.0,510.25,513.9
48,1555416504.4763925,542.0,615.0,562.0,225.0,202.0,261.0,512.1,517.25
49,1555416504.5733147,540.0,593.0,594.0,225.0,202.0,261.0,513.5,520.95
50,1555416504.649382,556.0,573.0,536.0,225.0,202.0,261.0,514.7,521.8
51,1555416504.7229848,481.0,381.0,477.0,225.0,246.0,261.0,512.2,511.75
52,1555416504.8001597,500.0,483.0,553.0,225.0,246.0,261.0,514.25,510.05
53,1555416504.8771493,472.0,574.0,571.0,225.0,246.0,261.0,513.15,510.75
54,1555416504.9548578,527.0,508.0,508.0,225.0,246.0,261.0,513.45,510.35
55,1555416505.034054,507.0,379.0,491.0,225.0,248.0,261.0,513.65,505.8
56,1555416505.1114447,513.0,454.0,491.0,225.0,248.0,261.0,513.9,506.75
57,1555416505.1812854,529.0,579.0,506.0,225.0,248.0,261.0,514.55,509.45
58,1555416505.2710094,515.0,496.0,513.0,225.0,248.0,261.0,515.95,509.4
59,1555416505.3413138,494.0,421.0,547.0,162.0,248.0,261.0,520.2,509.2
60,1555416505.4125993,501.0,463.0,564.0,162.0,248.0,261.0,520.25,505.0
61,1555416505.4897532,496.0,565.0,586.0,84.0,248.0,261.0,513.35,507.95
62,1555416505.579987,518.0,440.0,473.0,84.0,236.0,254.0,511.8,498.6
63,1555416505.6650655,508.0,452.0,581.0,84.0,236.0,254.0,512.65,497.8
64,1555416505.7443447,503.0,483.0,534.0,84.0,236.0,254.0,512.35,498.15
65,1555416505.8217947,491.0,559.0,519.0,84.0,236.0,171.0,509.35,500.6
66,1555416505.8914475,527.0,488.0,506.0,84.0,236.0,158.0,510.95,498.05
67,1555416505.9756541,513.0,571.0,489.0,84.0,236.0,121.0,511.65,503.85
68,1555416506.047305,510.0,526.0,462.0,84.0,214.0,132.0,510.05,499.4
69,1555416506.1302547,493.0,593.0,471.0,84.0,214.0,124.0,507.7,499.4
70,1555416506.2161021,481.0,432.0,515.0,57.0,214.0,124.0,503.95,492.35
71,1555416506.3030584,525.0,511.0,540.0,57.0,214.0,124.0,506.15,498.85
72,1555416506.3925881,530.0,539.0,489.0,58.0,214.0,124.0,507.65,501.65
73,1555416506.4680738,511.0,486.0,477.0,49.0,214.0,124.0,509.6,497.25
74,1555416506.5369167,522.0,550.0,486.0,49.0,214.0,124.0,509.35,499.35
75,1555416506.6074657,480.0,435.0,519.0,50.0,172.0,124.0,508.0,502.15
76,1555416506.6880941,523.0,541.0,554.0,50.0,172.0,124.0,508.5,506.5
77,1555416506.7617648,493.0,461.0,461.0,50.0,172.0,125.0,506.7,500.6
78,1555416506.844726,485.0,481.0,467.0,50.0,172.0,125.0,505.2,499.85
79,1555416506.922238,502.0,463.0,546.0,50.0,161.0,125.0,505.6,501.95
80,1555416507.0067146,492.0,482.0,530.0,50.0,161.0,125.0,505.15,502.9
81,1555416507.0805423,487.0,500.0,544.0,50.0,161.0,120.0,504.7,499.65
82,1555416507.1531522,509.0,512.0,539.0,50.0,161.0,120.0,504.25,503.25
83,1555416507.2238207,510.0,514.0,478.0,50.0,161.0,93.0,504.35,506.35
84,1555416507.3006978,512.0,454.0,483.0,50.0,161.0,93.0,504.8,504.9
85,1555416507.379954,484.0,459.0,453.0,50.0,161.0,101.0,504.45,499.9
86,1555416507.4575293,515.0,615.0,576.0,50.0,183.0,123.0,503.85,506.25
87,1555416507.5374036,513.0,523.0,537.0,50.0,183.0,123.0,503.85,503.85
88,1555416507.6254516,516.0,518.0,519.0,50.0,183.0,123.0,504.15,503.45
89,1555416507.6971543,477.0,511.0,619.0,53.0,183.0,166.0,503.35,499.35
90,1555416507.7787764,521.0,480.0,534.0,53.0,180.0,166.0,505.35,501.75
91,1555416507.858319,521.0,578.0,487.0,53.0,180.0,166.0,505.15,505.1
92,1555416507.9499488,502.0,502.0,599.0,46.0,180.0,166.0,503.75,503.25
93,1555416508.0315773,497.0,533.0,458.0,46.0,180.0,166.0,503.05,505.6
94,1555416508.1037283,499.0,477.0,529.0,46.0,180.0,166.0,501.9,501.95
95,1555416508.1885312,512.0,471.0,541.0,46.0,161.0,166.0,503.5,503.75
96,1555416508.2641525,515.0,504.0,526.0,44.0,161.0,166.0,503.1,501.9
97,1555416508.3433602,487.0,346.0,438.0,44.0,269.0,181.0,502.8,496.15
98,1555416508.4242043,526.0,467.0,449.0,49.0,269.0,181.0,504.85,495.45
99,1555416508.5028358,510.0,516.0,524.0,49.0,269.0,181.0,505.25,498.1
100,1555416508.5787094,501.0,539.0,543.0,49.0,269.0,181.0,505.7,500.95
101,1555416508.6523733,502.0,461.0,520.0,49.0,269.0,181.0,506.45,499.0
102,1555416508.7372093,456.0,393.0,461.0,70.0,269.0,181.0,503.8,493.05
103,1555416508.8152761,485.0,509.0,564.0,70.0,269.0,181.0,502.55,492.8
104,1555416508.8926225,577.0,656.0,505.0,121.0,310.0,181.0,505.8,502.9
105,1555416508.984914,524.0,464.0,505.0,121.0,310.0,181.0,507.8,503.15
106,1555416509.068959,545.0,584.0,496.0,121.0,310.0,181.0,509.3,501.6
107,1555416509.1573725,516.0,510.0,551.0,121.0,310.0,181.0,509.45,500.95
108,1555416509.2365773,518.0,435.0,503.0,121.0,310.0,181.0,509.55,496.8
109,1555416509.316603,513.0,487.0,492.0,121.0,310.0,161.0,511.35,495.6
110,1555416509.407195,513.0,636.0,535.0,121.0,310.0,161.0,510.95,503.4
111,1555416509.485965,507.0,500.0,447.0,121.0,310.0,161.0,510.25,499.5
112,1555416509.5619707,510.0,476.0,464.0,121.0,310.0,126.0,510.65,498.2
113,1555416509.6410642,546.0,555.0,512.0,121.0,310.0,126.0,513.1,499.3
114,1555416509.727522,579.0,550.0,480.0,123.0,310.0,126.0,517.1,502.95
115,1555416509.8054414,538.0,521.0,456.0,123.0,310.0,126.0,518.4,505.45
116,1555416509.879075,504.0,447.0,465.0,123.0,310.0,126.0,517.85,502.6
117,1555416509.9584305,508.0,537.0,523.0,123.0,263.0,117.0,518.9,512.15
118,1555416510.0448184,488.0,538.0,541.0,123.0,263.0,117.0,517.0,515.7
119,1555416510.1157637,479.0,473.0,553.0,123.0,263.0,117.0,515.45,513.55
120,1555416510.2040222,489.0,498.0,526.0,123.0,263.0,117.0,514.85,511.5
121,1555416510.2824392,510.0,459.0,578.0,123.0,263.0,131.0,515.25,511.4
122,1555416510.3625484,506.0,464.0,580.0,100.0,221.0,133.0,517.75,514.95
123,1555416510.4319203,524.0,483.0,479.0,100.0,221.0,133.0,519.7,513.65
124,1555416510.504336,516.0,550.0,501.0,100.0,201.0,133.0,516.65,508.35
125,1555416510.5864038,548.0,492.0,560.0,100.0,201.0,133.0,517.85,509.75
126,1555416510.666319,539.0,565.0,515.0,100.0,201.0,133.0,517.55,508.8
127,1555416510.7670355,504.0,499.0,521.0,100.0,201.0,133.0,516.95,508.25
128,1555416510.8550048,509.0,478.0,450.0,100.0,189.0,133.0,516.5,510.4
129,1555416510.9317918,503.0,499.0,423.0,100.0,189.0,157.0,516.0,511.0
130,1555416511.0030115,510.0,496.0,415.0,100.0,118.0,165.0,515.85,504.0
131,1555416511.0740874,501.0,483.0,606.0,100.0,118.0,191.0,515.55,503.15
132,1555416511.1431522,473.0,395.0,439.0,106.0,170.0,191.0,513.7,499.1
133,1555416511.2156165,491.0,474.0,448.0,106.0,170.0,191.0,510.95,495.05
134,1555416511.2972195,507.0,510.0,472.0,75.0,170.0,191.0,507.35,493.05
135,1555416511.3837185,501.0,528.0,558.0,75.0,170.0,191.0,505.5,493.4
136,1555416511.4670556,519.0,494.0,512.0,75.0,170.0,191.0,506.25,495.75
137,1555416511.5633407,525.0,577.0,540.0,75.0,182.0,191.0,507.1,497.75
138,1555416511.6381779,500.0,535.0,518.0,75.0,182.0,191.0,507.7,497.6
139,1555416511.7136254,501.0,501.0,606.0,75.0,182.0,191.0,508.8,499.0
140,1555416511.7967117,496.0,484.0,495.0,75.0,182.0,191.0,509.15,498.3
141,1555416511.8824441,499.0,469.0,465.0,75.0,182.0,191.0,508.6,498.8
142,1555416511.9535465,524.0,637.0,467.0,75.0,242.0,191.0,509.5,507.45
143,1555416512.025695,494.0,533.0,472.0,75.0,242.0,191.0,508.0,509.95
144,1555416512.1106415,531.0,546.0,514.0,75.0,242.0,191.0,508.75,509.75
145,1555416512.189208,514.0,456.0,482.0,66.0,242.0,191.0,507.05,507.95
146,1555416512.281624,518.0,458.0,423.0,58.0,242.0,191.0,506.0,502.6
147,1555416512.358997,504.0,529.0,473.0,58.0,242.0,191.0,506.0,504.1
148,1555416512.4406981,495.0,452.0,456.0,58.0,242.0,191.0,505.3,502.8
149,1555416512.5202832,494.0,526.0,564.0,58.0,242.0,191.0,504.85,504.15
150,1555416512.6052847,486.0,456.0,566.0,58.0,242.0,183.0,503.65,502.15
151,1555416512.6954827,484.0,476.0,520.0,58.0,242.0,183.0,502.8,501.8
152,1555416512.7823913,519.0,508.0,484.0,47.0,185.0,183.0,505.1,507.45
153,1555416512.881011,521.0,561.0,469.0,47.0,185.0,183.0,506.6,511.8
154,1555416512.952796,499.0,550.0,535.0,47.0,185.0,183.0,506.2,513.8
155,1555416513.0248103,520.0,567.0,482.0,47.0,185.0,183.0,507.15,515.75
156,1555416513.1085875,510.0,502.0,601.0,47.0,185.0,183.0,506.7,516.15
157,1555416513.1886077,494.0,506.0,569.0,47.0,185.0,183.0,505.15,512.6
158,1555416513.2665062,492.0,495.0,587.0,47.0,185.0,183.0,504.75,510.6
159,1555416513.3532372,538.0,505.0,579.0,54.0,185.0,178.0,506.6,510.8
160,1555416513.4369862,511.0,447.0,543.0,54.0,190.0,178.0,507.35,508.95
161,1555416513.5263648,496.0,413.0,545.0,54.0,224.0,178.0,507.2,506.15
162,1555416513.6077461,495.0,510.0,546.0,54.0,154.0,178.0,505.75,499.8
163,1555416513.6801026,501.0,512.0,636.0,54.0,154.0,213.0,506.1,498.75
164,1555416513.7662485,497.0,513.0,538.0,54.0,154.0,213.0,504.4,497.1
165,1555416513.8482792,488.0,471.0,514.0,54.0,154.0,213.0,503.1,497.85
166,1555416513.922199,517.0,513.0,489.0,54.0,154.0,180.0,503.05,500.6
167,1555416514.0006704,514.0,600.0,524.0,54.0,187.0,180.0,503.55,504.15
168,1555416514.08161,510.0,518.0,419.0,54.0,187.0,217.0,504.3,507.45
169,1555416514.153877,529.0,528.0,485.0,54.0,187.0,217.0,506.05,507.55
170,1555416514.2254744,499.0,458.0,540.0,54.0,187.0,217.0,506.7,507.65
171,1555416514.3000064,499.0,487.0,556.0,50.0,187.0,217.0,507.45,508.2
172,1555416514.3720567,511.0,485.0,450.0,50.0,187.0,217.0,507.05,507.05
173,1555416514.4529731,501.0,482.0,485.0,50.0,187.0,217.0,506.05,503.1
174,1555416514.5221422,502.0,476.0,433.0,50.0,187.0,217.0,506.2,499.4
175,1555416514.5964956,496.0,503.0,431.0,50.0,187.0,217.0,505.0,496.2
176,1555416514.6941097,537.0,577.0,433.0,50.0,187.0,217.0,506.35,499.95
177,1555416514.7658234,498.0,491.0,411.0,50.0,187.0,225.0,506.55,499.2
178,1555416514.8358784,509.0,503.0,463.0,50.0,187.0,225.0,507.4,499.6
179,1555416514.9264667,494.0,512.0,444.0,49.0,187.0,225.0,505.2,499.95
180,1555416515.0246177,492.0,500.0,455.0,49.0,187.0,225.0,504.25,502.6
181,1555416515.1028519,487.0,535.0,468.0,50.0,142.0,225.0,503.8,508.7
182,1555416515.1827424,484.0,516.0,437.0,53.0,142.0,225.0,503.25,509.0
183,1555416515.263789,492.0,481.0,389.0,53.0,142.0,167.0,502.8,507.45
184,1555416515.3389509,492.0,508.0,467.0,53.0,142.0,167.0,502.55,507.2
185,1555416515.4230292,529.0,543.0,442.0,53.0,142.0,167.0,504.6,510.8
186,1555416515.5115774,499.0,467.0,586.0,53.0,142.0,197.0,503.7,508.5
187,1555416515.6015942,497.0,410.0,521.0,53.0,167.0,197.0,502.85,499.0
188,1555416515.6836374,503.0,522.0,572.0,53.0,167.0,197.0,502.5,499.2
189,1555416515.7714403,532.0,618.0,595.0,53.0,208.0,206.0,502.65,503.7
190,1555416515.8578384,554.0,542.0,532.0,70.0,208.0,206.0,505.4,507.9
191,1555416515.9280875,516.0,474.0,507.0,70.0,208.0,206.0,506.25,507.25
192,1555416516.0061607,520.0,472.0,583.0,70.0,208.0,206.0,506.7,506.6
193,1555416516.0879693,488.0,522.0,555.0,70.0,208.0,206.0,506.05,508.6
194,1555416516.1633563,552.0,507.0,472.0,70.0,208.0,206.0,508.55,510.15
195,1555416516.2405412,532.0,539.0,496.0,70.0,208.0,206.0,510.35,511.95
196,1555416516.313784,486.0,413.0,460.0,70.0,208.0,206.0,507.8,503.75
197,1555416516.4055734,502.0,499.0,503.0,70.0,208.0,206.0,508.0,504.15
198,1555416516.493807,529.0,589.0,478.0,70.0,208.0,206.0,509.0,508.45
199,1555416516.5709784,488.0,411.0,493.0,70.0,208.0,206.0,508.7,503.4
200,1555416516.6663203,468.0,368.0,453.0,86.0,250.0,206.0,507.5,496.8
201,1555416516.7404292,515.0,523.0,508.0,86.0,250.0,206.0,508.9,496.2
202,1555416516.816744,549.0,541.0,586.0,86.0,250.0,206.0,512.15,497.45
203,1555416516.8969593,531.0,476.0,645.0,86.0,250.0,203.0,514.1,497.2
204,1555416516.9886973,531.0,471.0,399.0,86.0,250.0,246.0,516.05,495.35
205,1555416517.0860307,532.0,457.0,482.0,86.0,250.0,246.0,516.2,491.05
206,1555416517.1638722,497.0,477.0,425.0,86.0,250.0,246.0,516.1,491.55
207,1555416517.2440662,492.0,459.0,536.0,86.0,250.0,246.0,515.85,494.0
208,1555416517.3346205,501.0,531.0,685.0,86.0,250.0,286.0,515.75,494.45
209,1555416517.4175534,515.0,527.0,465.0,86.0,221.0,286.0,514.9,489.9
210,1555416517.488668,492.0,474.0,512.0,84.0,221.0,286.0,511.8,486.5
211,1555416517.584102,496.0,551.0,563.0,84.0,221.0,286.0,510.8,490.35
212,1555416517.6695302,532.0,457.0,482.0,84.0,221.0,286.0,511.4,489.6
213,1555416517.7659125,497.0,477.0,425.0,84.0,221.0,286.0,511.85,487.35
214,1555416517.839519,492.0,459.0,536.0,81.0,221.0,286.0,508.85,484.95
215,1555416517.9133625,501.0,531.0,685.0,81.0,221.0,286.0,507.3,484.55
216,1555416517.9982553,524.0,516.0,499.0,81.0,221.0,286.0,509.2,489.7
217,1555416518.0914989,487.0,536.0,539.0,81.0,221.0,286.0,508.45,491.55
218,1555416518.171865,484.0,479.0,528.0,81.0,183.0,286.0,506.2,486.05
219,1555416518.247123,511.0,495.0,520.0,81.0,183.0,286.0,507.35,490.25
220,1555416518.3253906,531.0,581.0,515.0,65.0,124.0,286.0,510.5,500.9
221,1555416518.4030802,499.0,596.0,469.0,65.0,139.0,286.0,509.7,504.55
222,1555416518.4750829,502.0,451.0,245.0,48.0,145.0,440.0,507.35,500.05
223,1555416518.5626783,518.0,424.0,0.0,48.0,172.0,685.0,506.7,497.45
224,1555416518.6437385,549.0,403.0,117.0,65.0,193.0,685.0,507.6,494.05
225,1555416518.718862,462.0,435.0,675.0,87.0,193.0,685.0,504.1,492.95
226,1555416518.8156395,505.0,442.0,241.0,87.0,193.0,685.0,504.5,491.2
227,1555416518.9098551,488.0,370.0,508.0,87.0,226.0,685.0,504.3,486.75
228,1555416518.990586,511.0,566.0,754.0,87.0,226.0,754.0,504.8,488.5
229,1555416519.068281,488.0,448.0,532.0,87.0,226.0,754.0,503.45,484.55
230,1555416519.152264,501.0,514.0,468.0,87.0,226.0,754.0,503.9,486.55
231,1555416519.2386148,503.0,485.0,731.0,87.0,226.0,754.0,504.25,483.25
232,1555416519.3143728,493.0,485.0,714.0,87.0,226.0,754.0,502.3,484.65
233,1555416519.393645,508.0,566.0,481.0,87.0,226.0,754.0,502.85,489.1
234,1555416519.4801934,511.0,520.0,490.0,87.0,226.0,754.0,503.8,492.15
235,1555416519.5606153,470.0,478.0,679.0,87.0,226.0,754.0,502.25,489.5
236,1555416519.644634,497.0,478.0,531.0,87.0,226.0,754.0,500.9,487.6
237,1555416519.7256362,505.0,506.0,764.0,87.0,226.0,764.0,501.8,486.1
238,1555416519.8101315,508.0,519.0,544.0,87.0,226.0,764.0,503.0,488.1
239,1555416519.8901088,523.0,444.0,488.0,87.0,226.0,764.0,503.6,485.55
240,1555416519.965759,530.0,673.0,627.0,87.0,303.0,764.0,503.55,490.15
241,1555416520.0529933,498.0,527.0,446.0,87.0,303.0,764.0,503.5,486.7
242,1555416520.15142,521.0,494.0,473.0,87.0,303.0,764.0,504.45,488.85
243,1555416520.2301614,507.0,459.0,571.0,87.0,303.0,647.0,503.9,490.6
244,1555416520.3030653,506.0,548.0,476.0,68.0,303.0,523.0,501.75,497.85
245,1555416520.3884623,505.0,397.0,357.0,60.0,303.0,523.0,503.9,495.95
246,1555416520.4726796,517.0,548.0,521.0,60.0,303.0,407.0,504.5,501.25
247,1555416520.5476007,508.0,526.0,466.0,60.0,276.0,407.0,505.5,509.05
248,1555416520.6245863,535.0,495.0,520.0,65.0,276.0,407.0,506.7,505.5
249,1555416520.7112026,519.0,558.0,543.0,65.0,276.0,407.0,508.25,511.0
250,1555416520.7904775,488.0,424.0,522.0,65.0,276.0,407.0,507.6,506.5
251,1555416520.8680956,522.0,547.0,543.0,65.0,276.0,407.0,508.55,509.6
252,1555416520.9384844,503.0,517.0,577.0,65.0,276.0,407.0,509.05,511.2
253,1555416521.0122104,491.0,475.0,569.0,65.0,276.0,407.0,508.2,506.65
254,1555416521.0884752,558.0,601.0,488.0,88.0,276.0,407.0,510.55,510.7
255,1555416521.1632228,521.0,514.0,457.0,70.0,276.0,407.0,513.1,512.5
256,1555416521.2454648,498.0,483.0,518.0,70.0,276.0,407.0,513.15,512.75
257,1555416521.319869,465.0,507.0,618.0,93.0,276.0,270.0,511.15,512.8
258,1555416521.4003038,491.0,515.0,529.0,93.0,276.0,270.0,510.3,512.6
259,1555416521.482659,493.0,531.0,590.0,93.0,276.0,270.0,508.8,516.95
260,1555416521.5608106,529.0,555.0,488.0,93.0,204.0,261.0,508.75,511.05
261,1555416521.654996,489.0,523.0,578.0,93.0,204.0,261.0,508.3,510.85
262,1555416521.7315228,540.0,588.0,524.0,93.0,204.0,261.0,509.25,515.55
263,1555416521.8007367,557.0,463.0,487.0,93.0,204.0,261.0,511.75,515.75
264,1555416521.8863308,491.0,520.0,607.0,93.0,204.0,261.0,511.0,514.35
265,1555416521.9608517,504.0,520.0,507.0,93.0,177.0,161.0,510.95,520.5
266,1555416522.0502465,505.0,522.0,418.0,93.0,177.0,200.0,510.35,519.2
267,1555416522.1264615,490.0,461.0,298.0,93.0,177.0,320.0,509.45,515.95
268,1555416522.2161767,544.0,623.0,472.0,93.0,199.0,320.0,509.9,522.35
269,1555416522.2952085,513.0,489.0,401.0,93.0,199.0,320.0,509.6,518.9
270,1555416522.367596,506.0,551.0,506.0,93.0,162.0,320.0,510.5,525.25
271,1555416522.4456177,499.0,554.0,559.0,93.0,162.0,320.0,509.35,525.6
272,1555416522.5188875,487.0,488.0,454.0,93.0,162.0,320.0,508.55,524.15
273,1555416522.6072447,516.0,496.0,407.0,93.0,162.0,320.0,509.8,525.2
274,1555416522.6902432,496.0,460.0,438.0,92.0,163.0,320.0,506.7,518.15
275,1555416522.7715259,486.0,490.0,556.0,92.0,163.0,320.0,504.95,516.95
276,1555416522.8525336,494.0,586.0,441.0,92.0,163.0,320.0,504.75,522.1
277,1555416522.9372773,504.0,533.0,394.0,71.0,163.0,309.0,506.7,523.4
278,1555416523.0204458,494.0,531.0,662.0,71.0,163.0,364.0,506.85,524.2
279,1555416523.10016,509.0,544.0,697.0,71.0,163.0,399.0,507.65,524.85
280,1555416523.1848652,479.0,409.0,488.0,78.0,214.0,399.0,505.15,517.55
281,1555416523.2594142,504.0,508.0,642.0,78.0,214.0,399.0,505.9,516.8
282,1555416523.3503628,505.0,511.0,703.0,78.0,214.0,405.0,504.15,512.95
283,1555416523.4253054,516.0,508.0,638.0,65.0,214.0,405.0,502.1,515.2
284,1555416523.5063465,481.0,418.0,634.0,65.0,214.0,405.0,501.6,510.1
285,1555416523.5909228,496.0,473.0,710.0,65.0,214.0,412.0,501.2,507.75
286,1555416523.6806011,503.0,563.0,721.0,65.0,214.0,423.0,501.1,509.8
287,1555416523.7591856,513.0,518.0,517.0,65.0,214.0,327.0,502.25,512.65
288,1555416523.8437178,521.0,437.0,304.0,42.0,177.0,417.0,501.1,503.35
289,1555416523.9302933,531.0,514.0,463.0,52.0,177.0,417.0,502.0,504.6
290,1555416524.0016978,497.0,562.0,685.0,52.0,177.0,417.0,501.55,505.15
291,1555416524.0807328,519.0,563.0,562.0,52.0,177.0,417.0,502.55,505.6
292,1555416524.1514504,527.0,563.0,545.0,52.0,177.0,417.0,504.55,509.35
293,1555416524.2441342,500.0,502.0,512.0,52.0,177.0,417.0,503.75,509.65
294,1555416524.3279545,508.0,581.0,630.0,52.0,177.0,417.0,504.35,515.7
295,1555416524.4197183,522.0,520.0,471.0,52.0,177.0,417.0,506.15,517.2
296,1555416524.4952579,507.0,503.0,554.0,52.0,172.0,417.0,506.8,513.05
297,1555416524.5734644,488.0,479.0,644.0,52.0,172.0,417.0,506.0,510.35
298,1555416524.647109,486.0,459.0,378.0,52.0,172.0,417.0,505.6,506.75
299,1555416524.7282493,551.0,531.0,256.0,72.0,172.0,465.0,507.7,506.1
300,1555416524.8329384,503.0,552.0,312.0,70.0,163.0,465.0,508.9,513.25
301,1555416524.916157,496.0,548.0,242.0,70.0,163.0,479.0,508.5,515.25
302,1555416524.9859898,486.0,536.0,246.0,70.0,163.0,479.0,507.55,516.5
303,1555416525.0647082,504.0,555.0,465.0,70.0,163.0,479.0,506.95,518.85
304,1555416525.1511722,587.0,661.0,570.0,101.0,224.0,479.0,512.25,531.0
305,1555416525.226641,501.0,512.0,508.0,101.0,224.0,479.0,512.5,532.95
306,1555416525.3026867,528.0,528.0,632.0,101.0,224.0,443.0,513.75,531.2
307,1555416525.3789072,514.0,472.0,1021.0,101.0,224.0,779.0,513.8,528.9
308,1555416525.4483564,538.0,651.0,1021.0,101.0,202.0,779.0,514.65,539.6
309,1555416525.5192776,537.0,512.0,834.0,101.0,202.0,779.0,514.95,539.5
310,1555416525.592844,515.0,512.0,509.0,101.0,202.0,779.0,515.85,537.0
311,1555416525.6721344,504.0,670.0,565.0,101.0,211.0,779.0,515.1,542.35
312,1555416525.7447555,512.0,572.0,469.0,101.0,211.0,779.0,514.35,542.8
313,1555416525.8218477,507.0,487.0,423.0,101.0,211.0,779.0,514.7,542.05
314,1555416525.8992333,492.0,537.0,599.0,101.0,211.0,779.0,513.9,539.85
315,1555416525.9801407,512.0,505.0,825.0,101.0,211.0,779.0,513.4,539.1
316,1555416526.0583868,507.0,460.0,628.0,101.0,211.0,779.0,513.4,536.95
317,1555416526.1437612,494.0,442.0,532.0,101.0,228.0,779.0,513.7,535.1
318,1555416526.2229314,496.0,484.0,534.0,101.0,228.0,779.0,514.2,536.35
319,1555416526.311836,482.0,412.0,521.0,105.0,258.0,779.0,510.75,530.4
320,1555416526.3995643,500.0,380.0,387.0,105.0,290.0,779.0,510.6,521.8
321,1555416526.4756317,492.0,448.0,418.0,105.0,290.0,775.0,510.4,516.8
322,1555416526.5622883,472.0,399.0,389.0,115.0,290.0,634.0,509.7,509.95
323,1555416526.6415493,499.0,401.0,371.0,115.0,290.0,650.0,509.45,502.25
324,1555416526.7216723,488.0,410.0,461.0,66.0,290.0,650.0,504.5,489.7
325,1555416526.808122,494.0,473.0,496.0,66.0,290.0,650.0,504.15,487.75
326,1555416526.8822577,531.0,433.0,420.0,66.0,290.0,650.0,504.3,483.0
327,1555416526.9606702,503.0,461.0,371.0,66.0,290.0,650.0,503.75,482.45
328,1555416527.0492926,499.0,553.0,464.0,65.0,290.0,463.0,501.8,477.55
329,1555416527.125792,520.0,513.0,523.0,59.0,290.0,454.0,500.95,477.6
330,1555416527.2038438,502.0,527.0,496.0,59.0,290.0,454.0,500.3,478.35
331,1555416527.2773476,524.0,423.0,512.0,59.0,192.0,454.0,501.3,466.0
332,1555416527.3475585,506.0,453.0,416.0,59.0,173.0,454.0,501.0,460.05
333,1555416527.42368,512.0,563.0,486.0,59.0,183.0,454.0,501.25,463.85
334,1555416527.4968696,521.0,421.0,504.0,59.0,183.0,454.0,502.7,458.05
335,1555416527.5695562,540.0,573.0,464.0,68.0,193.0,257.0,504.1,461.45
336,1555416527.6422951,515.0,543.0,447.0,68.0,193.0,163.0,504.5,465.6
337,1555416527.7262301,503.0,453.0,505.0,68.0,193.0,163.0,504.95,466.15
338,1555416527.8077247,503.0,482.0,521.0,68.0,193.0,152.0,505.3,466.05
339,1555416527.892111,504.0,498.0,515.0,68.0,193.0,152.0,506.4,470.35
340,1555416527.9709644,497.0,491.0,488.0,68.0,174.0,152.0,506.25,475.9
341,1555416528.0570807,546.0,699.0,516.0,74.0,300.0,152.0,508.95,488.45
342,1555416528.1422858,508.0,535.0,452.0,58.0,298.0,152.0,510.75,495.25
343,1555416528.2241359,500.0,539.0,506.0,58.0,289.0,152.0,510.8,502.15
344,1555416528.3168056,505.0,524.0,470.0,52.0,278.0,152.0,511.65,507.85
345,1555416528.3944478,506.0,541.0,456.0,49.0,278.0,152.0,512.25,511.25
346,1555416528.4758594,518.0,560.0,557.0,49.0,278.0,186.0,511.6,517.6
347,1555416528.5554597,504.0,515.0,478.0,49.0,278.0,141.0,511.65,520.3
348,1555416528.6468427,504.0,604.0,532.0,49.0,278.0,141.0,511.9,522.85
349,1555416528.7219253,515.0,519.0,468.0,49.0,278.0,141.0,511.65,523.15
350,1555416528.8135784,506.0,492.0,483.0,49.0,278.0,141.0,511.85,521.4
351,1555416528.8997054,499.0,477.0,485.0,49.0,278.0,141.0,510.6,524.1
352,1555416528.9827747,504.0,403.0,473.0,49.0,296.0,110.0,510.5,521.6
353,1555416529.0729287,495.0,499.0,439.0,51.0,296.0,118.0,509.65,518.4
354,1555416529.156179,511.0,566.0,469.0,51.0,296.0,118.0,509.15,525.65
355,1555416529.2521799,538.0,522.0,429.0,51.0,296.0,128.0,509.05,523.1
356,1555416529.3413675,524.0,595.0,517.0,51.0,296.0,128.0,509.5,525.7
357,1555416529.4224236,523.0,474.0,518.0,51.0,296.0,128.0,510.5,526.75
358,1555416529.5337574,539.0,492.0,508.0,51.0,296.0,128.0,512.3,527.25
359,1555416529.610789,505.0,494.0,534.0,51.0,296.0,128.0,512.35,527.05
360,1555416529.6957116,525.0,490.0,470.0,51.0,296.0,128.0,513.75,527.0
361,1555416529.7748153,496.0,466.0,440.0,44.0,201.0,128.0,511.25,515.35
362,1555416529.8687837,512.0,558.0,543.0,44.0,201.0,128.0,511.45,516.5
363,1555416529.95283,493.0,469.0,519.0,46.0,201.0,128.0,511.1,513.0
364,1555416530.0304863,486.0,471.0,460.0,53.0,201.0,128.0,510.15,510.35
365,1555416530.1051042,480.0,400.0,483.0,59.0,204.0,128.0,508.85,503.3
366,1555416530.1750367,461.0,453.0,488.0,78.0,204.0,114.0,506.0,497.95
367,1555416530.2699363,514.0,600.0,712.0,78.0,204.0,283.0,506.5,502.2
368,1555416530.3429444,493.0,517.0,465.0,78.0,200.0,283.0,505.95,497.85
369,1555416530.4233668,499.0,567.0,464.0,78.0,200.0,283.0,505.15,500.25
370,1555416530.513111,525.0,497.0,441.0,78.0,200.0,283.0,506.1,500.5
371,1555416530.5885513,519.0,471.0,432.0,78.0,200.0,283.0,507.1,500.2
372,1555416530.6660097,535.0,493.0,432.0,78.0,200.0,283.0,508.65,504.7
373,1555416530.753744,537.0,391.0,352.0,78.0,209.0,360.0,510.75,499.3
374,1555416530.8352678,496.0,358.0,523.0,78.0,242.0,360.0,510.0,488.9
375,1555416530.9321156,515.0,520.0,631.0,78.0,242.0,360.0,508.85,488.8
376,1555416531.018901,511.0,570.0,603.0,78.0,242.0,360.0,508.2,487.55
377,1555416531.1025252,492.0,491.0,619.0,78.0,242.0,360.0,506.65,488.4
378,1555416531.197369,488.0,555.0,555.0,76.0,242.0,360.0,504.1,491.55
379,1555416531.280717,533.0,436.0,454.0,76.0,242.0,360.0,505.5,488.65
380,1555416531.353026,516.0,483.0,490.0,76.0,242.0,360.0,505.05,488.3
381,1555416531.4375458,495.0,555.0,521.0,76.0,242.0,360.0,505.0,492.75
382,1555416531.5103545,495.0,537.0,521.0,76.0,242.0,360.0,504.15,491.7
383,1555416531.5863926,534.0,548.0,596.0,76.0,242.0,360.0,506.2,495.65
384,1555416531.6640377,513.0,490.0,421.0,76.0,242.0,360.0,507.55,496.6
385,1555416531.74783,528.0,470.0,461.0,76.0,242.0,360.0,509.95,500.1
386,1555416531.8384888,498.0,474.0,456.0,49.0,242.0,360.0,511.8,501.15
387,1555416531.9131896,545.0,604.0,438.0,57.0,246.0,279.0,513.35,501.35
388,1555416531.9903243,510.0,560.0,443.0,57.0,246.0,279.0,514.2,503.5
389,1555416532.0610063,493.0,423.0,376.0,57.0,246.0,279.0,513.9,496.3
390,1555416532.1321824,501.0,533.0,446.0,57.0,246.0,279.0,512.7,498.1
391,1555416532.210767,521.0,525.0,411.0,57.0,246.0,279.0,512.8,500.8
392,1555416532.3052402,551.0,507.0,382.0,63.0,246.0,279.0,513.6,501.5
393,1555416532.389553,530.0,494.0,436.0,63.0,246.0,255.0,513.25,506.65
394,1555416532.4823198,491.0,410.0,346.0,63.0,194.0,285.0,513.0,509.25
395,1555416532.5651343,526.0,491.0,456.0,63.0,194.0,273.0,513.55,507.8
396,1555416532.6416903,523.0,508.0,586.0,63.0,194.0,273.0,514.15,504.7
397,1555416532.7258756,496.0,492.0,586.0,63.0,194.0,250.0,514.35,504.75
398,1555416532.8067153,506.0,415.0,494.0,60.0,194.0,250.0,515.25,497.75
399,1555416532.8869216,561.0,577.0,479.0,70.0,194.0,250.0,516.65,504.8
400,1555416532.9634876,480.0,488.0,473.0,81.0,194.0,250.0,514.85,505.05
401,1555416533.032372,505.0,490.0,513.0,81.0,194.0,250.0,515.35,501.8
402,1555416533.1018617,470.0,466.0,535.0,91.0,194.0,250.0,514.1,498.25
403,1555416533.1763768,554.0,725.0,403.0,91.0,315.0,240.0,515.1,507.1
404,1555416533.2647002,500.0,505.0,491.0,91.0,315.0,240.0,514.45,507.85
405,1555416533.3767023,504.0,446.0,555.0,91.0,315.0,240.0,513.25,506.65
406,1555416533.4554448,502.0,450.0,419.0,91.0,315.0,240.0,513.45,505.45
407,1555416533.5504467,508.0,496.0,393.0,91.0,315.0,240.0,511.6,500.05
408,1555416533.6232862,538.0,616.0,599.0,91.0,315.0,253.0,513.0,502.85
409,1555416533.703003,507.0,472.0,597.0,91.0,315.0,253.0,513.7,505.3
410,1555416533.780927,522.0,503.0,477.0,91.0,315.0,253.0,514.75,503.8
411,1555416533.8496313,507.0,483.0,551.0,91.0,315.0,253.0,514.05,501.7
412,1555416533.922199,506.0,477.0,573.0,91.0,315.0,253.0,511.8,500.2
413,1555416533.9983304,513.0,552.0,532.0,91.0,315.0,253.0,510.95,503.1
414,1555416534.090178,536.0,521.0,453.0,91.0,310.0,206.0,513.2,508.65
415,1555416534.1728613,491.0,446.0,602.0,91.0,310.0,209.0,511.45,506.4
416,1555416534.243395,584.0,580.0,567.0,114.0,310.0,209.0,514.5,510.0
417,1555416534.3169641,525.0,520.0,603.0,114.0,310.0,210.0,515.95,511.4
418,1555416534.3924851,489.0,483.0,603.0,114.0,279.0,210.0,515.1,514.8
419,1555416534.4773598,509.0,466.0,439.0,114.0,279.0,210.0,512.5,509.25
420,1555416534.557538,506.0,533.0,530.0,114.0,279.0,210.0,513.8,511.5
421,1555416534.6486056,494.0,458.0,516.0,114.0,279.0,210.0,513.25,509.9
422,1555416534.7300005,522.0,475.0,514.0,95.0,279.0,210.0,515.85,510.35
423,1555416534.8242903,540.0,482.0,517.0,95.0,170.0,210.0,515.15,498.2
424,1555416534.9109547,514.0,573.0,475.0,95.0,170.0,210.0,515.85,501.6
425,1555416535.0008948,486.0,619.0,478.0,98.0,173.0,210.0,514.95,510.25
426,1555416535.0749903,519.0,524.0,445.0,98.0,173.0,210.0,515.8,513.95
427,1555416535.1773648,581.0,586.0,441.0,98.0,173.0,164.0,519.45,518.45
428,1555416535.2712011,503.0,497.0,527.0,98.0,173.0,164.0,517.7,512.5
429,1555416535.3469074,515.0,577.0,513.0,98.0,173.0,164.0,518.1,517.75
430,1555416535.434981,465.0,509.0,503.0,119.0,173.0,164.0,515.25,518.05
431,1555416535.5053964,497.0,464.0,447.0,119.0,173.0,164.0,514.75,517.1
432,1555416535.5903113,489.0,473.0,467.0,119.0,173.0,164.0,513.9,516.9
433,1555416535.6594543,531.0,511.0,447.0,119.0,173.0,164.0,514.8,514.85
434,1555416535.7287326,494.0,454.0,488.0,119.0,173.0,164.0,512.7,511.5
435,1555416535.809352,498.0,466.0,515.0,119.0,165.0,164.0,513.05,512.5
436,1555416535.8878658,516.0,532.0,508.0,116.0,165.0,164.0,509.65,510.1
437,1555416535.9754238,542.0,597.0,455.0,116.0,165.0,164.0,510.5,513.95
438,1555416536.0529437,486.0,441.0,540.0,116.0,178.0,101.0,510.35,511.85
439,1555416536.1469772,495.0,484.0,523.0,116.0,178.0,99.0,509.65,512.75
440,1555416536.2198262,510.0,598.0,465.0,116.0,178.0,99.0,509.85,516.0
441,1555416536.2899897,497.0,500.0,440.0,116.0,178.0,100.0,510.0,518.1
442,1555416536.3741515,509.0,516.0,415.0,116.0,178.0,125.0,509.35,520.15
443,1555416536.449178,526.0,579.0,454.0,116.0,178.0,125.0,508.65,525.0
444,1555416536.5294888,491.0,475.0,445.0,116.0,178.0,125.0,507.5,520.1
445,1555416536.6002169,510.0,494.0,478.0,116.0,157.0,125.0,508.7,513.85
446,1555416536.6770647,551.0,607.0,422.0,116.0,166.0,125.0,510.3,518.0
447,1555416536.7507892,502.0,461.0,400.0,86.0,166.0,140.0,506.35,511.75
448,1555416536.8245392,495.0,523.0,399.0,86.0,166.0,141.0,505.95,513.05
449,1555416536.9057553,514.0,582.0,362.0,86.0,166.0,178.0,505.9,513.3
450,1555416536.9874406,483.0,481.0,417.0,68.0,166.0,178.0,506.8,511.9
451,1555416537.0618834,522.0,548.0,378.0,68.0,166.0,178.0,508.05,516.1
452,1555416537.145776,511.0,450.0,366.0,68.0,166.0,178.0,509.15,514.95
453,1555416537.2417123,528.0,548.0,466.0,68.0,166.0,178.0,509.0,516.8
454,1555416537.314101,490.0,472.0,404.0,68.0,166.0,178.0,508.8,517.7
455,1555416537.3900995,503.0,498.0,423.0,68.0,166.0,178.0,509.05,519.3
456,1555416537.4707623,503.0,478.0,361.0,68.0,166.0,179.0,508.4,516.6
457,1555416537.5633593,512.0,430.0,500.0,68.0,177.0,179.0,506.9,508.25
458,1555416537.6432748,526.0,563.0,566.0,68.0,177.0,205.0,508.9,514.35
459,1555416537.7146244,471.0,439.0,629.0,80.0,177.0,268.0,507.7,512.1
460,1555416537.7948635,534.0,535.0,693.0,80.0,177.0,332.0,508.9,508.95
461,1555416537.8728683,508.0,535.0,790.0,80.0,177.0,429.0,509.45,510.7
462,1555416537.951945,492.0,418.0,912.0,80.0,189.0,551.0,508.6,505.8
463,1555416538.0309317,490.0,427.0,744.0,80.0,189.0,551.0,506.8,498.2
464,1555416538.105602,551.0,485.0,620.0,80.0,189.0,551.0,509.8,498.7
465,1555416538.1829052,519.0,465.0,679.0,80.0,189.0,551.0,510.25,497.25
466,1555416538.2592993,536.0,502.0,596.0,80.0,164.0,551.0,509.5,492.0
467,1555416538.346678,512.0,543.0,506.0,80.0,164.0,551.0,510.0,496.1
468,1555416538.418608,497.0,603.0,455.0,80.0,185.0,551.0,510.1,500.1
469,1555416538.4906044,525.0,571.0,598.0,80.0,185.0,551.0,510.65,499.55
470,1555416538.576983,520.0,570.0,502.0,80.0,185.0,551.0,512.5,504.0
471,1555416538.65454,537.0,436.0,631.0,80.0,185.0,551.0,513.25,498.4
472,1555416538.743816,499.0,448.0,644.0,80.0,185.0,551.0,512.65,498.3
473,1555416538.8144133,488.0,415.0,686.0,80.0,188.0,551.0,510.65,491.65
474,1555416538.9055035,508.0,441.0,595.0,80.0,188.0,551.0,511.55,490.1
475,1555416538.9785066,500.0,444.0,705.0,80.0,188.0,551.0,511.4,487.4
476,1555416539.0660827,493.0,497.0,748.0,80.0,188.0,457.0,510.9,488.35
477,1555416539.1593378,510.0,451.0,645.0,80.0,188.0,457.0,510.8,489.4
478,1555416539.2375865,533.0,481.0,624.0,80.0,188.0,457.0,511.15,485.3
479,1555416539.323985,490.0,432.0,740.0,63.0,188.0,457.0,512.1,484.95
480,1555416539.3952494,481.0,469.0,731.0,70.0,188.0,457.0,509.45,481.65
481,1555416539.4840784,553.0,573.0,709.0,72.0,188.0,457.0,511.7,483.55
482,1555416539.5659626,523.0,511.0,480.0,72.0,188.0,293.0,513.25,488.2
483,1555416539.6489942,507.0,513.0,446.0,72.0,188.0,302.0,514.1,492.5
484,1555416539.7221959,509.0,532.0,690.0,72.0,188.0,302.0,512.0,494.85
485,1555416539.7948701,480.0,489.0,632.0,73.0,188.0,302.0,510.05,496.05
486,1555416539.8680558,517.0,523.0,652.0,73.0,188.0,302.0,509.1,497.1
487,1555416539.9391172,493.0,498.0,650.0,73.0,188.0,302.0,508.15,494.85
488,1555416540.0167372,518.0,518.0,618.0,73.0,158.0,302.0,509.2,490.6
489,1555416540.1024237,538.0,525.0,562.0,73.0,158.0,302.0,509.85,488.3
490,1555416540.2188485,503.0,496.0,588.0,73.0,158.0,302.0,509.0,484.6
491,1555416540.3122854,498.0,552.0,568.0,73.0,158.0,302.0,507.05,490.4
492,1555416540.3972769,499.0,515.0,628.0,73.0,158.0,302.0,507.05,493.75
493,1555416540.4860277,479.0,433.0,730.0,74.0,141.0,302.0,506.6,494.65
494,1555416540.5822132,495.0,554.0,514.0,74.0,141.0,302.0,505.95,500.3
495,1555416540.6647406,488.0,497.0,544.0,74.0,141.0,302.0,505.35,502.95
496,1555416540.7506034,495.0,535.0,435.0,74.0,141.0,305.0,505.45,504.85
497,1555416540.8533642,504.0,481.0,433.0,74.0,141.0,307.0,505.15,506.35
498,1555416540.9345605,485.0,520.0,494.0,74.0,141.0,307.0,502.75,508.3
499,1555416541.0121255,504.0,514.0,367.0,74.0,140.0,364.0,503.45,512.4
500,1555416541.0886183,501.0,574.0,417.0,74.0,141.0,363.0,504.45,517.65
501,1555416541.1640344,529.0,552.0,531.0,59.0,141.0,363.0,503.25,516.6
502,1555416541.2435691,496.0,589.0,315.0,59.0,156.0,415.0,501.9,520.5
503,1555416541.324662,525.0,582.0,425.0,59.0,156.0,415.0,502.8,523.95
504,1555416541.403618,481.0,486.0,416.0,59.0,156.0,415.0,501.4,521.65
505,1555416541.4895875,474.0,412.0,415.0,64.0,177.0,415.0,501.1,517.8
506,1555416541.5717373,515.0,480.0,420.0,64.0,177.0,415.0,501.0,515.65
507,1555416541.6530354,491.0,465.0,628.0,64.0,177.0,415.0,500.9,514.0
508,1555416541.7525458,515.0,505.0,500.0,64.0,177.0,415.0,500.75,513.35
509,1555416541.8391516,472.0,449.0,416.0,57.0,177.0,415.0,497.45,509.55
510,1555416541.9265676,517.0,487.0,469.0,57.0,177.0,415.0,498.15,509.1
511,1555416542.018431,282.0,597.0,658.0,247.0,185.0,415.0,487.35,511.35
512,1555416542.098754,276.0,617.0,707.0,253.0,205.0,415.0,476.2,516.45
513,1555416542.1757963,388.0,732.0,771.0,253.0,320.0,456.0,471.65,531.4
514,1555416542.2682383,506.0,836.0,842.0,253.0,424.0,527.0,472.2,545.5
515,1555416542.350414,506.0,836.0,842.0,253.0,424.0,527.0,473.1,562.45
516,1555416542.4313715,266.0,343.0,416.0,263.0,493.0,527.0,461.65,552.85
517,1555416542.5109837,234.0,669.0,593.0,295.0,493.0,527.0,448.15,562.25
518,1555416542.597532,194.0,785.0,657.0,335.0,493.0,527.0,433.6,575.5
519,1555416542.6841242,111.0,390.0,766.0,418.0,493.0,527.0,413.95,569.3
520,1555416542.753624,276.0,617.0,707.0,418.0,493.0,527.0,402.7,571.45
521,1555416542.8240523,388.0,732.0,771.0,414.0,493.0,527.0,395.65,580.45
522,1555416542.8922267,506.0,836.0,842.0,414.0,493.0,427.0,396.15,592.8
523,1555416542.962622,543.0,805.0,1021.0,432.0,493.0,606.0,397.05,603.95
524,1555416543.0340304,538.0,694.0,1022.0,432.0,493.0,607.0,399.9,614.35
525,1555416543.1211512,574.0,581.0,1023.0,463.0,493.0,607.0,404.9,622.8
526,1555416543.2119808,807.0,240.0,1022.0,696.0,596.0,607.0,419.5,610.8
527,1555416543.3048997,723.0,329.0,1021.0,696.0,596.0,607.0,431.1,604.0
528,1555416543.3966036,617.0,469.0,686.0,696.0,596.0,607.0,436.2,602.2
529,1555416543.4684484,558.0,526.0,0.0,696.0,596.0,1023.0,440.5,606.05
530,1555416543.5597906,621.0,767.0,0.0,696.0,596.0,1023.0,445.7,620.05
531,1555416543.63767,482.0,886.0,1.0,696.0,646.0,1023.0,455.7,634.5
532,1555416543.7163334,765.0,1021.0,1.0,696.0,781.0,1023.0,480.15,654.7
533,1555416543.8092537,669.0,922.0,0.0,696.0,781.0,1023.0,494.2,664.2
534,1555416543.8934803,707.0,583.0,148.0,696.0,781.0,1023.0,504.25,651.55
535,1555416543.9759204,589.0,822.0,1022.0,696.0,781.0,1023.0,508.4,650.85
536,1555416544.056925,641.0,729.0,1019.0,696.0,781.0,1023.0,527.15,670.15
537,1555416544.127823,515.0,897.0,1005.0,696.0,781.0,1023.0,541.2,681.55
538,1555416544.200829,556.0,924.0,986.0,696.0,781.0,1023.0,559.3,688.5
539,1555416544.2725992,583.0,841.0,1021.0,531.0,781.0,1023.0,582.9,711.05
540,1555416544.362035,598.0,486.0,1022.0,419.0,781.0,1023.0,599.0,704.5
541,1555416544.440779,517.0,113.0,1022.0,325.0,908.0,1023.0,605.45,673.55
542,1555416544.528218,361.0,463.0,1022.0,446.0,908.0,1023.0,598.2,654.9
543,1555416544.6032903,201.0,334.0,807.0,606.0,908.0,1023.0,581.1,631.35
544,1555416544.6804364,224.0,690.0,246.0,606.0,908.0,1023.0,565.4,631.15
545,1555416544.7598054,294.0,870.0,1.0,606.0,908.0,1022.0,551.4,645.6
546,1555416544.8405066,334.0,871.0,0.0,564.0,908.0,1022.0,527.75,677.15
547,1555416544.9197726,549.0,579.0,24.0,564.0,908.0,1022.0,519.05,689.65
548,1555416545.0041285,620.0,161.0,134.0,564.0,908.0,1022.0,519.2,674.25
549,1555416545.0896716,552.0,61.0,241.0,564.0,960.0,1022.0,518.9,651.0
550,1555416545.1677814,563.0,18.0,590.0,564.0,1003.0,1022.0,516.0,613.55
551,1555416545.2428417,626.0,87.0,140.0,564.0,1003.0,1022.0,523.2,573.6
552,1555416545.3287256,570.0,0.0,2.0,506.0,924.0,1022.0,513.45,522.55
553,1555416545.4143133,534.0,1022.0,39.0,506.0,1022.0,1022.0,506.7,527.55
554,1555416545.5026364,481.0,1021.0,136.0,440.0,1022.0,1022.0,495.4,549.45
555,1555416545.5998433,821.0,103.0,0.0,620.0,1022.0,1022.0,507.0,513.5
556,1555416545.6945922,732.0,26.0,0.0,620.0,1022.0,1022.0,511.55,478.35
557,1555416545.7698436,738.0,331.0,2.0,620.0,1022.0,1022.0,522.7,450.05
558,1555416545.846448,724.0,318.0,120.0,620.0,1022.0,1022.0,531.1,419.75
559,1555416545.9292455,693.0,571.0,554.0,620.0,1022.0,1022.0,536.6,406.25
560,1555416546.0116067,561.0,602.0,748.0,620.0,1022.0,1022.0,534.75,412.05
561,1555416546.1046946,180.0,1020.0,948.0,641.0,1022.0,1022.0,517.9,457.4
562,1555416546.1839566,156.0,1020.0,947.0,665.0,1022.0,948.0,507.65,485.25
563,1555416546.27036,262.0,1017.0,669.0,665.0,1022.0,948.0,510.7,519.4
564,1555416546.348392,214.0,842.0,192.0,665.0,1022.0,948.0,510.2,527.0
565,1555416546.434897,298.0,1021.0,243.0,665.0,1022.0,948.0,510.4,534.55
566,1555416546.5129793,274.0,1021.0,158.0,665.0,1022.0,948.0,507.4,542.05
567,1555416546.5926921,363.0,0.0,0.0,665.0,1022.0,948.0,498.1,513.1
568,1555416546.6815455,318.0,402.0,1.0,665.0,1022.0,948.0,483.0,525.15
569,1555416546.7704318,392.0,1023.0,377.0,665.0,1023.0,948.0,475.0,573.25
570,1555416546.8486536,0.0,231.0,925.0,821.0,1023.0,948.0,446.85,583.9
571,1555416546.9188135,190.0,402.0,777.0,821.0,1023.0,948.0,425.05,599.65
572,1555416546.996723,774.0,114.0,636.0,821.0,1023.0,948.0,435.25,605.35
573,1555416547.0744314,851.0,660.0,428.0,851.0,1023.0,948.0,451.1,587.25
574,1555416547.1485114,817.0,1019.0,707.0,851.0,1023.0,948.0,467.9,587.15
575,1555416547.2196934,706.0,801.0,438.0,851.0,1023.0,948.0,462.15,622.05
576,1555416547.2922978,716.0,75.0,463.0,851.0,1023.0,948.0,461.35,624.5
577,1555416547.3612976,840.0,0.0,433.0,851.0,1023.0,948.0,466.45,607.95
578,1555416547.4322174,625.0,3.0,695.0,851.0,1023.0,948.0,461.5,592.2
579,1555416547.5051966,512.0,1.0,731.0,851.0,1023.0,948.0,452.45,563.7
580,1555416547.5812452,531.0,0.0,703.0,851.0,1023.0,948.0,450.95,533.6
581,1555416547.662966,606.0,23.0,383.0,851.0,1023.0,947.0,472.25,483.75
582,1555416547.739929,562.0,7.0,378.0,851.0,1023.0,925.0,492.55,433.1
583,1555416547.8094668,595.0,207.0,563.0,851.0,1023.0,925.0,509.2,392.6
584,1555416547.890658,677.0,286.0,364.0,851.0,1023.0,925.0,532.35,364.8
585,1555416547.9649935,605.0,279.0,590.0,851.0,1023.0,925.0,547.7,327.7
586,1555416548.0426219,514.0,569.0,614.0,851.0,1023.0,925.0,559.7,305.1
587,1555416548.1140256,435.0,550.0,283.0,851.0,1023.0,924.0,563.3,332.6
588,1555416548.1977224,429.0,452.0,420.0,851.0,1023.0,642.0,568.85,335.1
589,1555416548.2786067,523.0,692.0,286.0,851.0,1019.0,642.0,575.4,318.55
590,1555416548.3563807,518.0,679.0,377.0,661.0,1019.0,494.0,601.3,340.95
591,1555416548.4371274,529.0,880.0,301.0,422.0,1019.0,448.0,618.25,364.85
592,1555416548.515887,632.0,935.0,421.0,422.0,1019.0,448.0,611.15,405.9
593,1555416548.6082027,527.0,431.0,359.0,411.0,1019.0,448.0,594.95,394.45
594,1555416548.6853848,469.0,670.0,484.0,411.0,935.0,448.0,577.55,377.0
595,1555416548.7760925,452.0,426.0,588.0,411.0,935.0,448.0,564.85,358.25
596,1555416548.8489363,505.0,338.0,601.0,411.0,935.0,448.0,554.3,371.4
597,1555416548.9209347,499.0,434.0,604.0,248.0,935.0,448.0,537.25,393.1
598,1555416548.9902987,488.0,424.0,456.0,248.0,935.0,448.0,530.4,414.15
599,1555416549.0630338,532.0,606.0,596.0,248.0,935.0,420.0,531.4,444.4
600,1555416549.1424255,556.0,597.0,481.0,248.0,928.0,331.0,532.65,474.25
601,1555416549.221621,644.0,701.0,578.0,248.0,928.0,331.0,534.55,508.15
602,1555416549.298532,691.0,478.0,544.0,262.0,728.0,331.0,541.0,531.7
603,1555416549.3782513,616.0,740.0,415.0,262.0,656.0,331.0,542.05,558.35
604,1555416549.4610913,525.0,660.0,465.0,262.0,656.0,331.0,534.45,577.05
605,1555416549.546861,738.0,497.0,496.0,309.0,597.0,331.0,541.1,587.95
606,1555416549.6343014,634.0,105.0,678.0,309.0,830.0,395.0,547.1,564.75
607,1555416549.7079535,501.0,152.0,526.0,309.0,830.0,392.0,550.4,544.85
608,1555416549.7897685,287.0,17.0,571.0,451.0,918.0,392.0,543.3,523.1
609,1555416549.87521,178.0,14.0,651.0,560.0,921.0,377.0,526.05,489.2
610,1555416549.9515247,111.0,227.0,622.0,627.0,921.0,377.0,505.7,466.6
611,1555416550.030259,234.0,535.0,936.0,627.0,921.0,577.0,490.95,449.35
612,1555416550.1033316,350.0,554.0,789.0,627.0,726.0,577.0,476.85,430.3
613,1555416550.1843786,418.0,380.0,613.0,627.0,726.0,521.0,471.4,427.75
614,1555416550.2602983,407.0,721.0,656.0,627.0,726.0,521.0,468.3,430.3
615,1555416550.3414054,390.0,690.0,751.0,627.0,726.0,521.0,465.2,443.5
616,1555416550.4232447,388.0,339.0,760.0,627.0,726.0,521.0,459.35,443.55
617,1555416550.5018456,254.0,337.0,303.0,627.0,726.0,633.0,447.1,438.7
618,1555416550.5853124,496.0,487.0,1.0,627.0,726.0,935.0,447.5,441.85
619,1555416550.6613476,667.0,727.0,1.0,627.0,726.0,935.0,454.25,447.9
620,1555416550.7310348,661.0,646.0,0.0,627.0,726.0,936.0,459.5,450.35
621,1555416550.8046339,656.0,657.0,385.0,627.0,726.0,936.0,460.1,448.15
622,1555416550.8963163,626.0,574.0,465.0,627.0,726.0,936.0,456.85,452.95
623,1555416550.9776459,671.0,661.0,423.0,627.0,713.0,936.0,459.6,449.0
624,1555416551.064147,647.0,517.0,342.0,627.0,713.0,936.0,465.7,441.85
625,1555416551.1363802,658.0,516.0,351.0,560.0,713.0,936.0,461.7,442.8
626,1555416551.2046716,697.0,710.0,590.0,586.0,713.0,936.0,464.85,473.05
627,1555416551.2775578,686.0,800.0,812.0,586.0,786.0,936.0,474.1,505.45
628,1555416551.3487158,651.0,831.0,984.0,586.0,817.0,984.0,492.3,546.15
629,1555416551.4269936,535.0,486.0,804.0,586.0,604.0,984.0,510.15,569.75
630,1555416551.509821,494.0,342.0,778.0,463.0,494.0,984.0,529.3,575.5
631,1555416551.5900187,496.0,528.0,792.0,443.0,494.0,984.0,542.4,575.15
632,1555416551.6726823,417.0,414.0,717.0,443.0,494.0,984.0,545.75,568.15
633,1555416551.744491,377.0,512.0,808.0,443.0,494.0,984.0,543.7,574.75
634,1555416551.8217354,402.0,474.0,450.0,443.0,494.0,984.0,543.45,562.4
635,1555416551.901297,322.0,309.0,322.0,443.0,522.0,984.0,540.05,543.35
636,1555416551.9767854,247.0,463.0,413.0,450.0,522.0,984.0,533.0,549.55
637,1555416552.05405,345.0,331.0,452.0,450.0,522.0,984.0,537.55,549.25
638,1555416552.1370854,466.0,335.0,388.0,450.0,522.0,984.0,536.05,541.65
639,1555416552.206336,342.0,210.0,442.0,450.0,621.0,984.0,519.8,515.8
640,1555416552.2924778,363.0,27.0,665.0,450.0,804.0,662.0,504.9,484.85
641,1555416552.3686707,432.0,326.0,879.0,450.0,804.0,662.0,493.7,468.3
642,1555416552.45507,544.0,457.0,498.0,450.0,804.0,662.0,489.6,462.45
643,1555416552.531607,610.0,524.0,351.0,450.0,804.0,662.0,486.55,455.6
644,1555416552.6216514,631.0,611.0,609.0,450.0,804.0,662.0,485.75,460.3
645,1555416552.697031,645.0,539.0,366.0,450.0,804.0,662.0,485.1,461.45
646,1555416552.775427,627.0,603.0,145.0,439.0,804.0,839.0,481.6,456.1
647,1555416552.8460488,665.0,805.0,335.0,418.0,804.0,839.0,480.55,456.35
648,1555416552.9180124,599.0,592.0,291.0,418.0,778.0,734.0,477.95,444.4
649,1555416552.9975436,521.0,638.0,220.0,418.0,778.0,734.0,477.25,452.0
650,1555416553.081123,516.0,729.0,331.0,418.0,778.0,734.0,478.35,471.35
651,1555416553.1531787,518.0,658.0,626.0,418.0,778.0,734.0,479.45,477.85
652,1555416553.236441,555.0,660.0,613.0,418.0,778.0,734.0,486.35,490.15
653,1555416553.3214257,597.0,480.0,499.0,418.0,778.0,734.0,497.35,488.55
654,1555416553.3999584,767.0,587.0,449.0,520.0,778.0,734.0,515.6,494.2
655,1555416553.4833713,615.0,531.0,283.0,520.0,778.0,734.0,530.25,505.3
656,1555416553.5624712,516.0,601.0,323.0,425.0,778.0,734.0,543.7,512.2
657,1555416553.6397605,481.0,501.0,265.0,425.0,778.0,734.0,550.5,520.7
658,1555416553.7255292,511.0,543.0,487.0,425.0,778.0,734.0,552.75,531.1
659,1555416553.821186,568.0,545.0,515.0,404.0,778.0,734.0,564.05,547.85
660,1555416553.9008656,561.0,492.0,517.0,335.0,479.0,734.0,573.95,571.1
661,1555416553.9820695,563.0,521.0,450.0,286.0,348.0,481.0,580.5,580.85
662,1555416554.0722408,509.0,552.0,456.0,286.0,325.0,481.0,578.75,585.6
663,1555416554.1500182,527.0,501.0,453.0,286.0,325.0,481.0,574.6,584.45
664,1555416554.2376902,507.0,394.0,244.0,286.0,411.0,481.0,568.4,573.6
665,1555416554.319701,520.0,584.0,365.0,286.0,411.0,481.0,562.15,575.85
666,1555416554.410756,515.0,512.0,349.0,286.0,411.0,406.0,556.55,571.3
667,1555416554.4873252,504.0,493.0,460.0,286.0,335.0,406.0,548.5,555.7
668,1555416554.5848894,512.0,471.0,457.0,286.0,335.0,406.0,544.15,549.65
669,1555416554.670244,446.0,344.0,433.0,321.0,385.0,382.0,540.4,534.95
670,1555416554.759075,472.0,504.0,599.0,321.0,316.0,382.0,538.2,523.7
671,1555416554.8415282,499.0,681.0,612.0,321.0,337.0,369.0,537.25,524.85
672,1555416554.918956,507.0,448.0,519.0,321.0,337.0,368.0,534.85,514.25
673,1555416554.9969988,518.0,543.0,611.0,321.0,337.0,368.0,530.9,517.4
674,1555416555.0736868,503.0,528.0,444.0,169.0,337.0,368.0,517.7,514.45
675,1555416555.1560042,514.0,441.0,417.0,122.0,337.0,368.0,512.65,509.95
676,1555416555.237307,608.0,573.0,578.0,162.0,337.0,368.0,517.25,508.55
677,1555416555.3179197,535.0,478.0,559.0,162.0,337.0,368.0,519.95,507.4
678,1555416555.4005868,514.0,534.0,520.0,162.0,337.0,368.0,520.1,506.95
679,1555416555.4763818,490.0,464.0,475.0,162.0,337.0,368.0,516.2,502.9
680,1555416555.5609713,472.0,477.0,480.0,162.0,337.0,368.0,511.75,502.15
681,1555416555.656677,508.0,576.0,514.0,162.0,337.0,368.0,509.0,504.9
682,1555416555.735998,574.0,642.0,557.0,162.0,337.0,368.0,512.25,509.4
683,1555416555.8196218,527.0,504.0,565.0,162.0,337.0,368.0,512.25,509.55
684,1555416555.9015462,497.0,432.0,475.0,162.0,337.0,263.0,511.75,511.45
685,1555416555.9863546,460.0,453.0,414.0,162.0,337.0,263.0,508.75,504.9
686,1555416556.0648344,484.0,480.0,386.0,162.0,337.0,226.0,507.2,503.3
687,1555416556.1581256,547.0,570.0,451.0,162.0,337.0,226.0,509.35,507.15
688,1555416556.2429383,563.0,645.0,382.0,162.0,337.0,230.0,511.9,515.85
689,1555416556.3169174,538.0,550.0,460.0,148.0,249.0,230.0,516.5,526.15
690,1555416556.3923807,476.0,486.0,472.0,148.0,249.0,230.0,516.7,525.25
691,1555416556.4681785,468.0,500.0,523.0,148.0,213.0,229.0,515.15,516.2
692,1555416556.5443113,531.0,569.0,495.0,148.0,213.0,229.0,516.35,522.25
693,1555416556.616897,544.0,534.0,486.0,148.0,213.0,196.0,517.65,521.8
694,1555416556.6960735,561.0,549.0,486.0,148.0,213.0,196.0,520.55,522.85
695,1555416556.7795556,544.0,540.0,529.0,148.0,213.0,196.0,522.05,527.8
696,1555416556.862153,528.0,466.0,539.0,114.0,213.0,183.0,518.05,522.45
697,1555416556.9398046,531.0,569.0,503.0,114.0,213.0,183.0,517.85,527.0
698,1555416557.01236,515.0,491.0,440.0,114.0,213.0,183.0,517.9,524.85
699,1555416557.0851104,516.0,464.0,424.0,114.0,213.0,183.0,519.2,524.85
700,1555416557.1600976,493.0,527.0,490.0,114.0,213.0,183.0,520.25,527.35
701,1555416557.2482235,550.0,586.0,627.0,114.0,213.0,245.0,522.35,527.85
702,1555416557.3354537,528.0,553.0,566.0,103.0,213.0,245.0,520.05,523.4
703,1555416557.415494,520.0,540.0,508.0,103.0,213.0,245.0,519.7,525.2
704,1555416557.5153544,550.0,649.0,564.0,103.0,196.0,245.0,522.35,536.05
705,1555416557.59665,458.0,407.0,434.0,105.0,242.0,245.0,522.25,533.75
706,1555416557.6806653,493.0,446.0,419.0,105.0,242.0,245.0,522.7,532.05
707,1555416557.7541728,491.0,440.0,449.0,105.0,242.0,245.0,519.9,525.55
708,1555416557.8379116,505.0,475.0,532.0,103.0,242.0,208.0,517.0,517.05
709,1555416557.906789,506.0,544.0,484.0,103.0,242.0,208.0,515.4,516.75
710,1555416557.9866939,481.0,471.0,544.0,103.0,242.0,208.0,515.65,516.0
711,1555416558.076154,530.0,561.0,503.0,103.0,242.0,208.0,518.75,519.05
712,1555416558.163679,497.0,497.0,515.0,103.0,242.0,208.0,517.05,515.45
713,1555416558.2392097,509.0,515.0,578.0,103.0,242.0,208.0,515.3,514.5
714,1555416558.314679,497.0,504.0,566.0,92.0,242.0,208.0,512.1,512.25
715,1555416558.3931358,512.0,499.0,643.0,92.0,242.0,224.0,510.5,510.2
716,1555416558.4712617,524.0,549.0,493.0,92.0,242.0,224.0,510.3,514.35
717,1555416558.5708914,483.0,460.0,515.0,92.0,242.0,224.0,507.9,508.9
718,1555416558.6572948,523.0,584.0,483.0,92.0,242.0,224.0,508.3,513.55
719,1555416558.7367058,550.0,588.0,561.0,92.0,242.0,224.0,510.0,519.75
720,1555416558.8173387,486.0,409.0,498.0,92.0,242.0,224.0,509.65,513.85
721,1555416558.899626,493.0,555.0,530.0,92.0,242.0,224.0,506.8,512.3
722,1555416559.0028522,528.0,459.0,575.0,92.0,242.0,224.0,506.8,507.6
723,1555416559.078292,551.0,624.0,545.0,93.0,242.0,224.0,508.35,511.8
724,1555416559.1643808,498.0,457.0,523.0,93.0,217.0,224.0,505.75,502.2
725,1555416559.2590182,522.0,545.0,519.0,70.0,215.0,224.0,508.95,509.1
726,1555416559.3382962,513.0,539.0,543.0,70.0,215.0,194.0,509.95,513.75
727,1555416559.4386334,498.0,481.0,557.0,70.0,215.0,160.0,510.3,515.8
728,1555416559.5230248,474.0,391.0,519.0,77.0,233.0,160.0,508.75,511.6
729,1555416559.6049247,518.0,445.0,515.0,77.0,233.0,160.0,509.35,506.65
730,1555416559.686966,497.0,509.0,560.0,77.0,233.0,160.0,510.15,508.55
731,1555416559.7658474,522.0,544.0,472.0,77.0,233.0,171.0,509.75,507.7
732,1555416559.8527048,519.0,477.0,526.0,77.0,233.0,171.0,510.85,506.7
733,1555416559.9261336,526.0,473.0,522.0,77.0,233.0,171.0,511.7,504.6
734,1555416560.0036552,534.0,543.0,589.0,77.0,233.0,171.0,513.55,506.55
735,1555416560.088776,501.0,444.0,583.0,77.0,233.0,117.0,513.0,503.8
736,1555416560.1755593,492.0,445.0,467.0,77.0,233.0,122.0,511.4,498.6
737,1555416560.2452595,475.0,509.0,497.0,77.0,233.0,122.0,511.0,501.05
738,1555416560.3157766,511.0,559.0,603.0,77.0,233.0,136.0,510.4,499.8
739,1555416560.390327,540.0,544.0,487.0,77.0,233.0,136.0,509.9,497.6
740,1555416560.4669209,469.0,470.0,493.0,82.0,233.0,136.0,509.05,500.65
741,1555416560.5480163,500.0,501.0,472.0,82.0,233.0,136.0,509.4,497.95
742,1555416560.6275477,495.0,526.0,524.0,82.0,233.0,136.0,507.75,501.3
743,1555416560.716509,516.0,553.0,427.0,71.0,168.0,176.0,506.0,497.75
744,1555416560.8014371,503.0,447.0,477.0,71.0,168.0,176.0,506.25,497.25
745,1555416560.885831,522.0,446.0,538.0,71.0,168.0,176.0,506.25,492.3
746,1555416560.9585345,522.0,492.0,462.0,71.0,168.0,176.0,506.7,489.95
747,1555416561.052264,497.0,415.0,513.0,71.0,168.0,176.0,506.65,486.65
748,1555416561.1537545,493.0,521.0,526.0,71.0,144.0,176.0,507.6,493.15
749,1555416561.225301,561.0,488.0,603.0,92.0,144.0,176.0,509.75,495.3
750,1555416561.2978835,494.0,464.0,465.0,92.0,144.0,176.0,509.6,493.05
751,1555416561.3798969,450.0,538.0,441.0,111.0,144.0,176.0,506.0,492.75
752,1555416561.4590318,445.0,444.0,497.0,116.0,144.0,176.0,502.3,491.1
753,1555416561.5506198,519.0,501.0,499.0,116.0,144.0,176.0,501.95,492.5
754,1555416561.6241922,513.0,477.0,533.0,116.0,144.0,176.0,500.9,489.2
755,1555416561.6942236,519.0,508.0,464.0,116.0,144.0,176.0,501.8,492.4
756,1555416561.7885115,501.0,442.0,444.0,116.0,144.0,176.0,502.25,492.25
757,1555416561.8844538,515.0,461.0,468.0,116.0,144.0,176.0,504.25,489.85
758,1555416561.9625866,528.0,523.0,493.0,116.0,138.0,176.0,505.1,488.05
759,1555416562.0420744,464.0,411.0,344.0,116.0,142.0,259.0,501.3,481.4
760,1555416562.13768,505.0,478.0,377.0,116.0,142.0,259.0,503.1,481.8
761,1555416562.2349164,487.0,436.0,471.0,116.0,142.0,259.0,502.45,478.55
762,1555416562.3161879,507.0,481.0,425.0,116.0,142.0,259.0,503.05,476.3
763,1555416562.3931475,500.0,527.0,506.0,116.0,127.0,259.0,502.25,475.0
764,1555416562.4772158,490.0,548.0,497.0,116.0,137.0,259.0,501.6,480.05
765,1555416562.554322,494.0,442.0,426.0,116.0,137.0,259.0,500.2,479.85
766,1555416562.6355197,529.0,539.0,530.0,116.0,137.0,259.0,500.55,482.2
767,1555416562.7184427,496.0,526.0,524.0,116.0,137.0,259.0,500.5,487.75
768,1555416562.7967105,507.0,433.0,492.0,116.0,137.0,259.0,501.2,483.35
769,1555416562.8802733,522.0,482.0,524.0,84.0,137.0,189.0,499.25,483.05
770,1555416562.9713657,533.0,698.0,638.0,88.0,287.0,294.0,501.2,494.75
771,1555416563.0459175,508.0,524.0,479.0,88.0,287.0,294.0,504.1,494.05
772,1555416563.1276107,474.0,416.0,520.0,69.0,287.0,294.0,505.55,492.65
773,1555416563.2062519,496.0,406.0,454.0,69.0,292.0,294.0,504.4,487.9
774,1555416563.2792726,496.0,497.0,535.0,69.0,292.0,294.0,503.55,488.9
775,1555416563.3595393,485.0,375.0,453.0,69.0,323.0,294.0,501.85,482.25
776,1555416563.4546025,565.0,525.0,428.0,101.0,323.0,294.0,505.05,486.4
777,1555416563.5453532,514.0,457.0,390.0,101.0,323.0,294.0,505.0,486.2
778,1555416563.6247835,519.0,476.0,434.0,101.0,323.0,294.0,504.55,483.85
779,1555416563.7016678,468.0,574.0,566.0,97.0,323.0,261.0,504.75,492.0
780,1555416563.7815547,548.0,740.0,552.0,97.0,365.0,248.0,506.9,505.1
781,1555416563.8634064,602.0,711.0,672.0,134.0,365.0,282.0,512.65,518.85
782,1555416563.9530134,742.0,680.0,953.0,274.0,365.0,563.0,524.4,528.8
783,1555416564.032231,675.0,710.0,1001.0,274.0,365.0,611.0,533.15,537.95
784,1555416564.1292248,649.0,590.0,1016.0,274.0,365.0,626.0,541.1,540.05
785,1555416564.2010095,650.0,391.0,1021.0,274.0,365.0,631.0,548.9,537.5
786,1555416564.2930927,502.0,733.0,1021.0,274.0,365.0,631.0,547.55,547.2
787,1555416564.369632,335.0,577.0,902.0,407.0,365.0,631.0,539.5,549.75
788,1555416564.4599512,325.0,467.0,458.0,417.0,365.0,631.0,530.4,551.45
789,1555416564.5373914,391.0,373.0,535.0,417.0,367.0,631.0,523.85,546.0
790,1555416564.6204352,429.0,567.0,738.0,417.0,367.0,631.0,518.65,539.45
791,1555416564.723019,568.0,747.0,936.0,417.0,374.0,631.0,521.65,550.6
792,1555416564.8028061,506.0,402.0,379.0,417.0,374.0,642.0,523.25,549.9
793,1555416564.8769228,474.0,425.0,431.0,417.0,374.0,642.0,522.15,550.85
794,1555416564.9745164,482.0,586.0,536.0,417.0,374.0,642.0,521.45,555.3
795,1555416565.053239,482.0,445.0,321.0,417.0,374.0,700.0,521.3,558.8
796,1555416565.1337705,480.0,508.0,390.0,417.0,374.0,700.0,517.05,557.95
797,1555416565.202964,426.0,444.0,416.0,417.0,374.0,700.0,512.65,557.3
798,1555416565.2745237,551.0,650.0,546.0,417.0,374.0,700.0,514.25,566.0
799,1555416565.3461418,537.0,501.0,448.0,417.0,374.0,700.0,517.7,562.35
800,1555416565.4173012,539.0,672.0,653.0,417.0,374.0,700.0,517.25,558.95
801,1555416565.4978902,547.0,633.0,451.0,417.0,374.0,700.0,514.5,555.05
802,1555416565.5701783,542.0,552.0,442.0,350.0,374.0,700.0,504.5,548.65
803,1555416565.640514,606.0,507.0,398.0,325.0,374.0,700.0,501.05,538.5
804,1555416565.736679,537.0,581.0,399.0,325.0,374.0,700.0,495.45,538.05
805,1555416565.819992,485.0,455.0,388.0,281.0,374.0,700.0,487.2,541.25
806,1555416565.8969116,480.0,520.0,421.0,281.0,374.0,615.0,486.1,530.6
807,1555416565.979108,494.0,434.0,401.0,281.0,374.0,615.0,494.05,523.45
808,1555416566.0546546,528.0,548.0,496.0,215.0,374.0,615.0,504.2,527.5
809,1555416566.1256692,529.0,603.0,498.0,180.0,345.0,615.0,511.1,539.0
810,1555416566.205894,461.0,468.0,484.0,180.0,345.0,615.0,512.7,534.05
811,1555416566.3068957,564.0,508.0,468.0,180.0,270.0,332.0,512.5,522.1
812,1555416566.38167,542.0,463.0,455.0,180.0,247.0,332.0,514.3,525.15
813,1555416566.4619756,536.0,534.0,484.0,180.0,238.0,332.0,517.4,530.6
814,1555416566.5351298,493.0,403.0,399.0,180.0,269.0,332.0,517.95,521.45
815,1555416566.6186829,459.0,349.0,366.0,180.0,323.0,287.0,516.8,516.65
816,1555416566.693203,511.0,605.0,634.0,180.0,323.0,287.0,518.35,521.5
817,1555416566.7740827,521.0,602.0,306.0,147.0,323.0,347.0,523.1,529.4
818,1555416566.85236,512.0,585.0,309.0,147.0,323.0,347.0,521.15,526.15
819,1555416566.9256296,515.0,584.0,358.0,147.0,323.0,347.0,520.05,530.3
820,1555416567.0135558,539.0,739.0,463.0,147.0,390.0,328.0,520.05,533.65
821,1555416567.0936043,575.0,730.0,527.0,147.0,390.0,328.0,521.45,538.5
822,1555416567.1777534,613.0,672.0,646.0,154.0,390.0,340.0,525.0,544.5
823,1555416567.2684295,576.0,512.0,781.0,154.0,390.0,475.0,523.5,544.75
824,1555416567.356423,509.0,498.0,383.0,154.0,390.0,475.0,522.1,540.6
825,1555416567.4400704,521.0,602.0,306.0,154.0,390.0,475.0,523.9,547.95
826,1555416567.511777,515.0,584.0,358.0,154.0,390.0,475.0,525.65,551.15
827,1555416567.5949948,539.0,739.0,463.0,154.0,390.0,475.0,527.9,566.4
828,1555416567.6742089,575.0,730.0,527.0,154.0,390.0,475.0,530.25,575.5
829,1555416567.7486095,613.0,672.0,646.0,154.0,390.0,475.0,534.45,578.95
830,1555416567.8265438,576.0,512.0,781.0,154.0,390.0,475.0,540.2,581.15
831,1555416567.9065015,589.0,488.0,452.0,154.0,390.0,475.0,541.45,580.15
832,1555416567.9902859,588.0,370.0,310.0,154.0,390.0,475.0,543.75,575.5
833,1555416568.0932114,506.0,519.0,505.0,154.0,390.0,475.0,542.25,574.75
834,1555416568.183056,510.0,685.0,681.0,154.0,390.0,475.0,543.1,588.85
835,1555416568.25878,470.0,426.0,440.0,143.0,369.0,475.0,543.65,592.7
836,1555416568.3589113,576.0,643.0,572.0,143.0,369.0,475.0,546.9,594.6
837,1555416568.4468353,529.0,567.0,524.0,143.0,369.0,475.0,547.3,592.85
838,1555416568.5224974,543.0,437.0,431.0,143.0,369.0,475.0,548.85,585.45
839,1555416568.591493,549.0,422.0,283.0,143.0,369.0,498.0,550.55,577.35
840,1555416568.6668594,572.0,453.0,390.0,143.0,369.0,498.0,552.2,563.05
841,1555416568.7368405,546.0,332.0,299.0,143.0,407.0,498.0,550.75,543.15
842,1555416568.8072305,536.0,368.0,536.0,143.0,407.0,498.0,546.9,527.95
843,1555416568.8801122,567.0,410.0,377.0,143.0,407.0,498.0,546.45,522.85
844,1555416568.9592679,480.0,375.0,372.0,143.0,407.0,498.0,545.0,516.7
845,1555416569.0331244,501.0,395.0,469.0,143.0,407.0,498.0,544.0,506.35
846,1555416569.1092436,481.0,458.0,614.0,143.0,407.0,498.0,542.3,500.05
847,1555416569.1888974,494.0,492.0,435.0,143.0,398.0,498.0,540.05,487.7
848,1555416569.2691007,516.0,654.0,474.0,143.0,353.0,498.0,537.1,483.9
849,1555416569.3539374,460.0,467.0,546.0,129.0,353.0,498.0,529.45,473.65
850,1555416569.449485,504.0,587.0,836.0,129.0,353.0,553.0,525.85,477.4
851,1555416569.525529,470.0,486.0,570.0,128.0,353.0,553.0,519.9,477.3
852,1555416569.6054459,514.0,488.0,441.0,116.0,353.0,553.0,516.2,483.2
853,1555416569.682592,498.0,622.0,476.0,116.0,353.0,553.0,515.8,488.35
854,1555416569.779251,511.0,594.0,418.0,116.0,322.0,553.0,515.85,483.8
855,1555416569.8543313,512.0,492.0,356.0,116.0,322.0,553.0,517.95,487.1
856,1555416569.930405,522.0,555.0,338.0,112.0,322.0,553.0,515.25,482.7
857,1555416570.0182526,479.0,521.0,435.0,112.0,322.0,553.0,512.75,480.4
858,1555416570.093683,494.0,515.0,469.0,112.0,322.0,553.0,510.3,484.3
859,1555416570.1735818,492.0,412.0,315.0,112.0,322.0,537.0,507.45,483.8
860,1555416570.2434638,486.0,619.0,475.0,107.0,322.0,537.0,503.15,492.1
861,1555416570.3151839,496.0,495.0,595.0,107.0,286.0,521.0,500.65,500.25
862,1555416570.3975396,473.0,390.0,565.0,107.0,279.0,521.0,497.5,501.35
863,1555416570.4795856,510.0,533.0,519.0,62.0,279.0,521.0,494.65,507.5
864,1555416570.5622923,498.0,423.0,492.0,62.0,264.0,521.0,495.55,509.9
865,1555416570.6373298,520.0,463.0,550.0,62.0,264.0,521.0,496.5,513.3
866,1555416570.7155755,454.0,476.0,589.0,68.0,264.0,521.0,495.15,514.2
867,1555416570.7870433,414.0,436.0,415.0,108.0,264.0,521.0,491.15,511.4
868,1555416570.8636374,458.0,490.0,505.0,108.0,232.0,521.0,488.25,503.2
869,1555416570.934358,442.0,489.0,502.0,108.0,232.0,521.0,487.35,504.3
870,1555416571.0056627,409.0,384.0,408.0,113.0,238.0,280.0,482.6,494.15
871,1555416571.0818913,477.0,534.0,453.0,113.0,238.0,280.0,482.95,496.55
872,1555416571.1541922,527.0,515.0,484.0,118.0,238.0,280.0,483.6,497.9
873,1555416571.2317317,568.0,521.0,518.0,159.0,235.0,280.0,487.1,492.85
874,1555416571.311983,624.0,480.0,449.0,215.0,235.0,280.0,492.75,487.15
875,1555416571.3810093,596.0,520.0,465.0,215.0,235.0,280.0,496.95,488.55
876,1555416571.471197,585.0,555.0,534.0,215.0,235.0,280.0,500.1,488.55
877,1555416571.575375,548.0,563.0,384.0,215.0,235.0,280.0,503.55,490.65
878,1555416571.6461065,532.0,531.0,428.0,215.0,235.0,280.0,505.45,491.45
879,1555416571.7240589,530.0,444.0,541.0,215.0,235.0,211.0,507.35,493.05
880,1555416571.805771,508.0,463.0,523.0,215.0,179.0,211.0,508.45,485.25
881,1555416571.8972473,472.0,495.0,382.0,215.0,179.0,207.0,507.25,485.25
882,1555416571.9663692,454.0,643.0,461.0,215.0,259.0,207.0,506.3,497.9
883,1555416572.0617547,445.0,541.0,591.0,215.0,259.0,209.0,503.05,498.3
884,1555416572.137605,458.0,492.0,405.0,215.0,259.0,209.0,501.05,501.75
885,1555416572.2130713,505.0,552.0,387.0,215.0,259.0,209.0,500.3,506.2
886,1555416572.2882822,595.0,651.0,522.0,215.0,267.0,209.0,507.35,514.95
887,1555416572.3596559,511.0,605.0,515.0,215.0,267.0,209.0,512.2,523.4
888,1555416572.4510977,498.0,450.0,412.0,215.0,267.0,209.0,514.2,521.4
889,1555416572.5287495,519.0,535.0,458.0,215.0,267.0,209.0,518.05,523.7
890,1555416572.6186843,506.0,536.0,529.0,179.0,207.0,209.0,522.9,531.3
891,1555416572.6922522,511.0,509.0,530.0,179.0,207.0,209.0,524.6,530.05
892,1555416572.7654936,535.0,553.0,456.0,179.0,207.0,209.0,525.0,531.95
893,1555416572.8479562,493.0,569.0,531.0,179.0,207.0,209.0,521.25,534.35
894,1555416572.928259,483.0,492.0,647.0,151.0,207.0,265.0,514.2,534.95
895,1555416573.0188754,499.0,407.0,516.0,150.0,244.0,265.0,509.35,529.3
896,1555416573.093175,553.0,558.0,557.0,150.0,244.0,265.0,507.75,529.45
897,1555416573.16227,536.0,541.0,568.0,150.0,244.0,265.0,507.15,528.35
898,1555416573.2327728,493.0,510.0,556.0,150.0,244.0,265.0,505.2,527.3
899,1555416573.3053832,496.0,533.0,486.0,150.0,244.0,265.0,503.5,531.75
900,1555416573.3819547,530.0,485.0,418.0,150.0,244.0,265.0,504.6,532.85
901,1555416573.466551,509.0,490.0,458.0,150.0,244.0,260.0,506.45,532.6
902,1555416573.552816,483.0,518.0,563.0,150.0,244.0,260.0,507.9,526.35
903,1555416573.632363,518.0,477.0,361.0,137.0,244.0,286.0,511.55,523.15
904,1555416573.714376,516.0,617.0,472.0,112.0,244.0,286.0,514.45,529.4
905,1555416573.783705,529.0,511.0,511.0,112.0,244.0,286.0,515.65,527.35
906,1555416573.8653393,510.0,521.0,497.0,70.0,210.0,286.0,511.4,520.85
907,1555416573.9367301,513.0,495.0,445.0,70.0,210.0,286.0,511.5,515.35
908,1555416574.0141485,479.0,519.0,452.0,74.0,210.0,286.0,510.55,518.8
909,1555416574.1049092,532.0,512.0,538.0,74.0,210.0,286.0,511.2,517.65
910,1555416574.1801825,517.0,437.0,582.0,74.0,210.0,286.0,511.75,512.7
911,1555416574.2507107,510.0,464.0,471.0,74.0,210.0,286.0,511.7,510.45
912,1555416574.3211234,478.0,496.0,480.0,75.0,210.0,286.0,508.85,507.6
913,1555416574.4120362,506.0,509.0,532.0,75.0,210.0,286.0,509.5,504.6
914,1555416574.5133839,490.0,552.0,603.0,75.0,210.0,242.0,509.85,507.6
915,1555416574.6111732,477.0,468.0,450.0,76.0,180.0,242.0,508.75,510.65
916,1555416574.6851184,470.0,430.0,553.0,66.0,187.0,242.0,504.6,504.25
917,1555416574.7810488,523.0,562.0,520.0,62.0,187.0,242.0,503.95,505.3
918,1555416574.8582313,522.0,522.0,513.0,62.0,187.0,242.0,505.4,505.9
919,1555416574.9313803,515.0,552.0,449.0,62.0,187.0,242.0,506.35,506.85
920,1555416575.0023847,493.0,641.0,481.0,62.0,211.0,242.0,504.5,514.65
921,1555416575.0843644,505.0,578.0,420.0,62.0,211.0,242.0,504.3,519.05
922,1555416575.1563847,512.0,500.0,441.0,62.0,211.0,242.0,505.75,518.15
923,1555416575.2299933,512.0,500.0,441.0,62.0,211.0,183.0,505.45,519.3
924,1555416575.3248782,523.0,534.0,545.0,62.0,211.0,183.0,505.8,515.15
925,1555416575.417076,542.0,501.0,581.0,72.0,211.0,183.0,506.45,514.65
926,1555416575.4878972,542.0,475.0,494.0,72.0,211.0,183.0,508.05,512.35
927,1555416575.5601904,535.0,613.0,483.0,72.0,211.0,183.0,509.15,518.25
928,1555416575.6454177,478.0,496.0,539.0,72.0,211.0,183.0,509.1,517.1
929,1555416575.7271693,496.0,520.0,534.0,72.0,211.0,183.0,507.3,517.5
930,1555416575.8004599,510.0,493.0,500.0,72.0,211.0,183.0,506.95,520.3
931,1555416575.8902526,506.0,467.0,538.0,72.0,211.0,183.0,506.75,520.45
932,1555416575.959852,542.0,441.0,511.0,72.0,211.0,183.0,509.95,517.7
933,1555416576.0423133,531.0,550.0,555.0,72.0,211.0,183.0,511.2,519.75
934,1555416576.1263928,464.0,493.0,526.0,78.0,211.0,161.0,509.9,516.8
935,1555416576.1987083,571.0,639.0,502.0,107.0,211.0,161.0,514.6,525.35
936,1555416576.2794616,518.0,462.0,556.0,107.0,200.0,161.0,517.0,526.95
937,1555416576.3596199,499.0,503.0,457.0,107.0,200.0,161.0,515.8,524.0
938,1555416576.441856,520.0,591.0,470.0,107.0,200.0,161.0,515.7,527.45
939,1555416576.520126,532.0,587.0,488.0,107.0,200.0,161.0,516.55,529.2
940,1555416576.6128128,547.0,601.0,440.0,107.0,198.0,161.0,519.25,527.2
941,1555416576.689307,504.0,488.0,504.0,107.0,198.0,141.0,519.2,522.7
942,1555416576.7692928,513.0,594.0,444.0,107.0,198.0,141.0,519.25,527.4
943,1555416576.8496084,523.0,463.0,483.0,107.0,198.0,141.0,519.8,525.55
944,1555416576.9295437,509.0,560.0,481.0,107.0,198.0,141.0,519.1,526.85
945,1555416577.0068872,513.0,544.0,440.0,107.0,198.0,116.0,517.65,529.0
946,1555416577.1064713,517.0,557.0,486.0,107.0,198.0,116.0,516.4,533.1
947,1555416577.1917176,504.0,553.0,458.0,107.0,198.0,116.0,514.85,530.1
948,1555416577.270169,519.0,486.0,411.0,107.0,198.0,145.0,516.9,529.6
949,1555416577.3497488,461.0,528.0,540.0,110.0,198.0,145.0,515.15,530.0
950,1555416577.4202728,490.0,508.0,521.0,110.0,198.0,145.0,514.15,530.75
951,1555416577.4947948,490.0,461.0,472.0,110.0,198.0,145.0,513.35,530.45
952,1555416577.5743473,492.0,444.0,489.0,110.0,195.0,145.0,510.85,530.6
953,1555416577.6532097,516.0,416.0,523.0,110.0,223.0,145.0,510.1,523.9
954,1555416577.7439308,501.0,486.0,464.0,110.0,223.0,145.0,511.95,523.55
955,1555416577.8207154,519.0,475.0,442.0,86.0,185.0,145.0,509.35,515.35
956,1555416577.9072497,467.0,493.0,484.0,86.0,185.0,129.0,506.8,516.9
957,1555416577.9946692,460.0,531.0,490.0,87.0,185.0,129.0,504.85,518.3
958,1555416578.074129,452.0,580.0,506.0,95.0,185.0,129.0,501.45,517.75
959,1555416578.147452,472.0,578.0,446.0,95.0,185.0,129.0,498.45,517.3
960,1555416578.2257931,494.0,565.0,423.0,71.0,178.0,129.0,495.8,515.5
961,1555416578.2961752,489.0,610.0,486.0,71.0,194.0,129.0,495.05,521.6
962,1555416578.3683856,568.0,635.0,443.0,116.0,219.0,129.0,497.8,523.65
963,1555416578.4627924,492.0,536.0,464.0,116.0,219.0,129.0,496.25,527.3
964,1555416578.5510588,556.0,508.0,498.0,116.0,219.0,129.0,498.6,524.7
965,1555416578.64393,549.0,512.0,466.0,116.0,219.0,129.0,500.4,523.1
966,1555416578.7248604,536.0,642.0,449.0,116.0,226.0,129.0,501.35,527.35
967,1555416578.804805,495.0,487.0,386.0,116.0,226.0,154.0,500.9,524.05
968,1555416578.88092,507.0,489.0,416.0,116.0,226.0,154.0,500.3,524.2
969,1555416578.9585757,545.0,359.0,403.0,116.0,283.0,137.0,504.5,515.75
970,1555416579.0444312,506.0,505.0,429.0,116.0,283.0,137.0,505.3,515.6
971,1555416579.1138244,535.0,510.0,570.0,116.0,283.0,184.0,507.55,518.05
972,1555416579.1832142,510.0,423.0,528.0,116.0,283.0,184.0,508.45,517.0
973,1555416579.2552552,495.0,404.0,610.0,116.0,283.0,224.0,507.4,516.4
974,1555416579.3240716,497.0,503.0,609.0,116.0,283.0,224.0,507.2,517.25
975,1555416579.3932192,468.0,388.0,541.0,116.0,283.0,224.0,504.65,512.9
976,1555416579.4668927,488.0,461.0,575.0,116.0,283.0,224.0,505.7,511.3
977,1555416579.5425506,484.0,504.0,691.0,116.0,283.0,305.0,506.9,509.95
978,1555416579.6227338,496.0,551.0,647.0,100.0,283.0,305.0,509.1,508.5
979,1555416579.6992571,494.0,547.0,591.0,100.0,283.0,305.0,510.2,506.95
980,1555416579.775944,523.0,580.0,575.0,100.0,283.0,305.0,511.65,507.7
981,1555416579.8563373,559.0,567.0,627.0,100.0,283.0,305.0,515.15,505.55
982,1555416579.9309337,589.0,702.0,686.0,121.0,343.0,305.0,516.2,508.9
983,1555416580.0208406,546.0,613.0,596.0,121.0,343.0,305.0,518.9,512.75
984,1555416580.1094403,508.0,543.0,600.0,121.0,343.0,305.0,516.5,514.5
985,1555416580.1815512,483.0,555.0,820.0,121.0,343.0,434.0,513.2,516.65
986,1555416580.253857,521.0,621.0,686.0,121.0,343.0,434.0,512.45,515.6
987,1555416580.3365324,505.0,545.0,608.0,121.0,343.0,417.0,512.95,518.5
988,1555416580.417724,481.0,564.0,585.0,121.0,343.0,417.0,511.65,522.25
989,1555416580.5074768,530.0,365.0,575.0,121.0,337.0,391.0,510.9,522.55
990,1555416580.5828183,504.0,326.0,546.0,121.0,376.0,292.0,510.8,513.6
991,1555416580.652349,466.0,412.0,560.0,123.0,376.0,292.0,507.35,508.7
992,1555416580.7243993,455.0,417.0,586.0,134.0,376.0,279.0,504.6,508.4
993,1555416580.7990613,442.0,166.0,631.0,147.0,536.0,279.0,501.95,496.5
994,1555416580.8776069,476.0,278.0,578.0,147.0,536.0,279.0,500.9,485.25
995,1555416580.9527662,428.0,319.0,603.0,161.0,536.0,274.0,498.9,481.8
996,1555416581.0603845,480.0,332.0,532.0,161.0,536.0,288.0,498.5,475.35
997,1555416581.140884,454.0,351.0,511.0,161.0,536.0,309.0,497.0,467.7
998,1555416581.219291,508.0,537.0,432.0,161.0,536.0,388.0,497.6,467.0
999,1555416581.297989,566.0,619.0,410.0,161.0,536.0,410.0,501.2,470.6
1000,1555416581.3734274,517.0,640.0,323.0,161.0,536.0,497.0,500.9,473.6
1001,1555416581.4736223,514.0,679.0,501.0,161.0,536.0,497.0,498.65,479.2
1002,1555416581.547951,531.0,462.0,527.0,138.0,513.0,497.0,495.75,467.2
1003,1555416581.6404629,529.0,470.0,540.0,138.0,513.0,497.0,494.9,460.05
1004,1555416581.7229722,537.0,414.0,642.0,138.0,513.0,497.0,496.35,453.6
1005,1555416581.795839,553.0,556.0,545.0,138.0,513.0,363.0,499.85,453.65
1006,1555416581.8678703,548.0,565.0,388.0,138.0,513.0,319.0,501.2,450.85
1007,1555416581.949828,579.0,606.0,411.0,151.0,513.0,319.0,504.9,453.9
1008,1555416582.0358284,518.0,554.0,396.0,151.0,513.0,319.0,506.75,453.4
1009,1555416582.1145344,485.0,504.0,432.0,151.0,513.0,319.0,504.5,460.35
1010,1555416582.1901934,530.0,660.0,501.0,151.0,513.0,319.0,505.8,477.05
1011,1555416582.2664645,506.0,602.0,572.0,151.0,513.0,319.0,507.8,486.55
1012,1555416582.3433862,495.0,622.0,577.0,151.0,513.0,319.0,509.8,496.8
1013,1555416582.4433506,455.0,506.0,429.0,151.0,401.0,319.0,510.45,513.8
1014,1555416582.5236506,475.0,496.0,494.0,151.0,360.0,319.0,510.4,524.7
1015,1555416582.6280088,474.0,534.0,451.0,125.0,347.0,319.0,512.7,535.45
1016,1555416582.7012331,477.0,492.0,444.0,125.0,328.0,319.0,512.55,543.45
1017,1555416582.7731678,511.0,590.0,450.0,124.0,265.0,319.0,515.4,555.4
1018,1555416582.8588247,531.0,573.0,515.0,124.0,265.0,319.0,516.55,557.2
1019,1555416582.9467638,503.0,408.0,518.0,124.0,271.0,319.0,513.4,546.65
1020,1555416583.0287108,521.0,484.0,559.0,124.0,271.0,254.0,513.6,538.85
1021,1555416583.1081352,557.0,564.0,533.0,124.0,252.0,254.0,515.75,533.1
1022,1555416583.1888294,515.0,512.0,536.0,124.0,252.0,254.0,514.95,535.6
1023,1555416583.276049,526.0,556.0,503.0,124.0,252.0,254.0,514.8,539.9
1024,1555416583.352631,547.0,605.0,446.0,124.0,252.0,189.0,515.3,549.45
1025,1555416583.4336045,568.0,543.0,391.0,124.0,252.0,189.0,516.05,548.8
1026,1555416583.5069935,561.0,561.0,434.0,124.0,252.0,186.0,516.7,548.6
1027,1555416583.5899668,530.0,525.0,430.0,113.0,252.0,186.0,514.25,544.55
1028,1555416583.6666033,517.0,504.0,403.0,113.0,252.0,186.0,514.2,542.05
1029,1555416583.742025,543.0,613.0,388.0,113.0,252.0,189.0,517.1,547.5
1030,1555416583.8453674,541.0,501.0,451.0,113.0,214.0,189.0,517.65,539.55
1031,1555416583.9203272,542.0,655.0,408.0,113.0,247.0,189.0,519.45,542.2
1032,1555416583.9927626,506.0,515.0,497.0,113.0,247.0,171.0,520.0,536.85
1033,1555416584.0807722,499.0,361.0,412.0,94.0,294.0,171.0,522.2,529.6
1034,1555416584.1643672,479.0,451.0,437.0,94.0,294.0,171.0,522.4,527.35
1035,1555416584.2360516,471.0,491.0,460.0,97.0,294.0,171.0,522.25,525.2
1036,1555416584.3123567,473.0,528.0,450.0,97.0,294.0,171.0,522.05,527.0
1037,1555416584.4032738,437.0,498.0,351.0,131.0,294.0,208.0,518.35,522.4
1038,1555416584.4825573,452.0,461.0,420.0,131.0,294.0,208.0,514.4,516.8
1039,1555416584.5648558,457.0,457.0,460.0,131.0,294.0,208.0,512.1,519.25
1040,1555416584.656418,487.0,562.0,486.0,131.0,294.0,185.0,510.4,523.15
1041,1555416584.7385998,506.0,484.0,529.0,131.0,294.0,185.0,507.85,519.15
1042,1555416584.8110447,498.0,527.0,534.0,131.0,294.0,183.0,507.0,519.9
1043,1555416584.8794446,484.0,421.0,470.0,131.0,294.0,183.0,504.9,513.15
1044,1555416584.9509964,510.0,482.0,524.0,131.0,294.0,183.0,503.05,507.0
1045,1555416585.0246756,530.0,611.0,502.0,124.0,294.0,183.0,501.15,510.4
1046,1555416585.098944,524.0,588.0,498.0,106.0,294.0,183.0,499.3,511.75
1047,1555416585.1837912,534.0,653.0,396.0,106.0,294.0,183.0,499.5,518.15
1048,1555416585.255496,491.0,638.0,415.0,106.0,294.0,183.0,498.2,524.85
1049,1555416585.339082,510.0,601.0,296.0,105.0,294.0,238.0,496.55,524.25
1050,1555416585.4274855,494.0,478.0,301.0,105.0,294.0,238.0,494.2,523.1
1051,1555416585.4957502,528.0,439.0,424.0,97.0,292.0,238.0,493.5,512.3
1052,1555416585.5694895,547.0,589.0,463.0,110.0,292.0,238.0,495.55,516.0
1053,1555416585.6419556,532.0,532.0,384.0,110.0,232.0,238.0,497.2,524.55
1054,1555416585.7209165,511.0,457.0,366.0,110.0,232.0,238.0,498.8,524.85
1055,1555416585.7959108,515.0,449.0,354.0,110.0,232.0,238.0,501.0,522.75
1056,1555416585.8726132,502.0,298.0,581.0,110.0,355.0,285.0,502.45,511.25
1057,1555416585.9441602,513.0,403.0,494.0,95.0,355.0,285.0,506.25,506.5
1058,1555416586.0174704,516.0,512.0,500.0,90.0,355.0,285.0,509.45,509.05
1059,1555416586.0984237,526.0,416.0,586.0,63.0,355.0,290.0,512.9,507.0
1060,1555416586.1860526,558.0,421.0,685.0,74.0,355.0,389.0,516.45,499.95
1061,1555416586.2612665,554.0,544.0,595.0,74.0,355.0,389.0,518.85,502.95
1062,1555416586.3412356,570.0,460.0,545.0,86.0,355.0,389.0,522.45,499.6
1063,1555416586.4099793,522.0,457.0,514.0,79.0,355.0,389.0,524.35,501.4
1064,1555416586.48762,490.0,385.0,516.0,80.0,355.0,389.0,523.35,496.55
1065,1555416586.5632405,456.0,485.0,405.0,114.0,355.0,389.0,519.65,490.25
1066,1555416586.6487312,477.0,686.0,449.0,114.0,388.0,389.0,517.3,495.15
1067,1555416586.7495,472.0,557.0,574.0,114.0,388.0,389.0,514.2,490.35
1068,1555416586.8202374,493.0,538.0,459.0,114.0,388.0,389.0,514.3,485.35
1069,1555416586.893902,515.0,493.0,586.0,114.0,388.0,384.0,514.55,479.95
1070,1555416586.9667575,491.0,629.0,499.0,114.0,388.0,331.0,514.4,487.5
1071,1555416587.038777,513.0,523.0,569.0,114.0,388.0,331.0,513.65,491.7
1072,1555416587.1144,520.0,559.0,505.0,114.0,388.0,331.0,512.3,490.2
1073,1555416587.1927803,513.0,670.0,496.0,114.0,388.0,331.0,511.35,497.1
1074,1555416587.265975,518.0,572.0,543.0,114.0,388.0,331.0,511.7,502.85
1075,1555416587.342682,512.0,545.0,484.0,114.0,388.0,280.0,511.55,507.65
1076,1555416587.4281898,543.0,579.0,574.0,114.0,301.0,280.0,513.6,521.7
1077,1555416587.5075235,544.0,542.0,580.0,114.0,301.0,280.0,515.15,528.65
1078,1555416587.5964036,519.0,511.0,558.0,114.0,301.0,280.0,515.3,528.6
1079,1555416587.6735923,493.0,528.0,555.0,114.0,301.0,280.0,513.65,534.2
1080,1555416587.746009,493.0,528.0,555.0,114.0,301.0,190.0,510.4,539.55
1081,1555416587.841806,511.0,530.0,527.0,114.0,301.0,181.0,508.25,538.85
1082,1555416587.9383607,528.0,490.0,517.0,88.0,301.0,181.0,506.15,540.35
1083,1555416588.0202823,512.0,525.0,565.0,88.0,301.0,181.0,505.65,543.75
1084,1555416588.097507,498.0,552.0,552.0,88.0,201.0,181.0,506.05,552.1
1085,1555416588.1718884,522.0,434.0,529.0,72.0,252.0,137.0,509.35,549.55
1086,1555416588.260928,517.0,595.0,574.0,72.0,236.0,127.0,511.35,545.0
1087,1555416588.341722,516.0,563.0,508.0,53.0,236.0,127.0,513.55,545.3
1088,1555416588.4254713,492.0,539.0,497.0,53.0,236.0,102.0,513.5,545.35
1089,1555416588.5213552,507.0,527.0,545.0,53.0,236.0,96.0,513.1,547.05
1090,1555416588.6058497,476.0,500.0,538.0,68.0,236.0,96.0,512.35,540.6
1091,1555416588.6854668,524.0,598.0,580.0,68.0,236.0,96.0,512.9,544.35
1092,1555416588.7583668,527.0,565.0,522.0,68.0,236.0,96.0,513.25,544.65
1093,1555416588.8365848,503.0,618.0,499.0,68.0,184.0,96.0,512.75,542.05
1094,1555416588.9396982,499.0,479.0,494.0,68.0,184.0,96.0,511.8,537.4
1095,1555416589.0254486,531.0,533.0,486.0,68.0,184.0,94.0,512.75,536.8
1096,1555416589.104474,499.0,419.0,524.0,68.0,199.0,94.0,510.55,528.8
1097,1555416589.2175658,509.0,433.0,481.0,55.0,199.0,99.0,508.8,523.35
1098,1555416589.3032537,530.0,451.0,545.0,55.0,199.0,99.0,509.35,520.35
1099,1555416589.39049,475.0,375.0,541.0,56.0,243.0,99.0,508.45,512.7
1100,1555416589.4816945,529.0,444.0,521.0,56.0,243.0,99.0,510.25,508.5
1101,1555416589.5687304,510.0,429.0,406.0,56.0,243.0,174.0,510.2,503.45
1102,1555416589.648418,509.0,520.0,458.0,56.0,243.0,174.0,509.25,504.95
1103,1555416589.7338836,469.0,473.0,455.0,62.0,243.0,174.0,507.1,502.35
1104,1555416589.8220704,494.0,538.0,474.0,62.0,243.0,174.0,506.9,501.65
1105,1555416589.8967204,480.0,616.0,611.0,62.0,243.0,205.0,504.8,510.75
1106,1555416589.9933612,565.0,509.0,704.0,96.0,243.0,298.0,507.2,506.45
1107,1555416590.069749,564.0,685.0,830.0,96.0,310.0,424.0,509.6,512.55
1108,1555416590.1473835,553.0,577.0,907.0,96.0,310.0,501.0,512.65,514.45
1109,1555416590.2163584,485.0,523.0,854.0,96.0,310.0,501.0,511.55,514.25
1110,1555416590.2942863,510.0,459.0,899.0,96.0,310.0,501.0,513.25,512.2
1111,1555416590.3857973,484.0,383.0,668.0,96.0,310.0,501.0,511.25,501.45
1112,1555416590.4688458,539.0,453.0,517.0,96.0,310.0,501.0,511.85,495.85
1113,1555416590.5511343,509.0,512.0,438.0,96.0,310.0,501.0,512.15,490.55
1114,1555416590.6286492,505.0,542.0,431.0,96.0,310.0,501.0,512.45,493.7
1115,1555416590.7013705,496.0,537.0,365.0,96.0,310.0,542.0,510.7,493.9
1116,1555416590.7703147,486.0,465.0,545.0,96.0,310.0,542.0,510.05,496.2
1117,1555416590.8451834,552.0,518.0,565.0,96.0,310.0,542.0,512.2,500.45
1118,1555416590.915572,503.0,389.0,584.0,96.0,310.0,542.0,510.85,497.35
1119,1555416590.9955435,508.0,423.0,486.0,96.0,302.0,542.0,512.5,499.75
1120,1555416591.0832102,514.0,504.0,549.0,96.0,302.0,542.0,511.75,502.75
1121,1555416591.1857002,399.0,343.0,25.0,166.0,342.0,882.0,506.2,498.45
1122,1555416591.2628698,333.0,383.0,378.0,232.0,342.0,882.0,497.4,491.6
1123,1555416591.3392107,345.0,525.0,720.0,232.0,342.0,882.0,491.2,494.2
1124,1555416591.4174902,566.0,628.0,844.0,233.0,342.0,882.0,494.8,498.7
1125,1555416591.5115767,638.0,891.0,754.0,305.0,548.0,882.0,502.7,512.45
1126,1555416591.5959785,542.0,353.0,1.0,305.0,548.0,906.0,501.55,504.65
1127,1555416591.6913207,441.0,179.0,1.0,305.0,712.0,906.0,495.4,479.35
1128,1555416591.76695,399.0,343.0,25.0,305.0,712.0,898.0,487.7,467.65
1129,1555416591.8385916,333.0,383.0,378.0,305.0,712.0,898.0,480.1,460.65
1130,1555416591.9315104,345.0,525.0,720.0,305.0,712.0,843.0,471.85,463.95
1131,1555416592.0093856,411.0,427.0,1021.0,305.0,712.0,1020.0,468.2,466.15
1132,1555416592.0919397,335.0,430.0,1009.0,305.0,712.0,1020.0,458.0,465.0
1133,1555416592.165824,522.0,660.0,859.0,305.0,712.0,1020.0,458.65,472.4
1134,1555416592.233816,461.0,616.0,510.0,305.0,712.0,1020.0,456.45,476.1
1135,1555416592.309146,470.0,593.0,505.0,305.0,712.0,1020.0,455.15,478.9
1136,1555416592.382602,521.0,633.0,566.0,305.0,712.0,1020.0,456.9,487.3
1137,1555416592.463831,528.0,720.0,95.0,305.0,712.0,1020.0,455.7,497.4
1138,1555416592.5429926,487.0,440.0,10.0,305.0,712.0,1020.0,454.9,499.95
1139,1555416592.6264462,466.0,462.0,40.0,305.0,712.0,1020.0,452.8,501.9
1140,1555416592.7161734,584.0,532.0,0.0,305.0,712.0,1021.0,456.3,503.3
1141,1555416592.8073852,600.0,614.0,1.0,305.0,712.0,1021.0,466.35,516.85
1142,1555416592.8880563,587.0,611.0,2.0,305.0,712.0,1021.0,479.05,528.25
1143,1555416592.9668899,492.0,641.0,731.0,305.0,712.0,1021.0,486.4,534.05
1144,1555416593.060638,506.0,545.0,1017.0,305.0,712.0,1021.0,483.4,529.9
1145,1555416593.1406052,522.0,1008.0,965.0,267.0,829.0,1021.0,477.6,535.75
1146,1555416593.2143955,495.0,1013.0,932.0,267.0,834.0,1021.0,475.25,568.75
1147,1555416593.2854283,429.0,605.0,849.0,267.0,670.0,1021.0,474.65,590.05
1148,1555416593.3577602,464.0,95.0,717.0,267.0,918.0,1021.0,477.9,577.65
1149,1555416593.4281204,493.0,508.0,669.0,265.0,918.0,1021.0,485.9,583.9
1150,1555416593.5190015,609.0,686.0,328.0,274.0,918.0,1021.0,499.1,591.95
1151,1555416593.6069105,631.0,1.0,16.0,296.0,1012.0,1017.0,510.1,570.65
1152,1555416593.7010145,629.0,34.0,142.0,202.0,1012.0,1017.0,524.8,550.85
1153,1555416593.7826757,678.0,440.0,462.0,249.0,1012.0,1017.0,532.6,539.85
1154,1555416593.8628807,659.0,682.0,632.0,249.0,1012.0,1017.0,542.5,543.15
1155,1555416593.9437447,814.0,795.0,240.0,385.0,1012.0,1017.0,559.7,553.25
1156,1555416594.0340707,413.0,891.0,1021.0,401.0,1012.0,1021.0,554.3,566.15
1157,1555416594.1320648,301.0,727.0,1021.0,513.0,1012.0,1021.0,542.95,566.5
1158,1555416594.2066026,376.0,315.0,1023.0,513.0,1012.0,1023.0,537.4,560.25
1159,1555416594.2932556,513.0,501.0,1021.0,513.0,1012.0,1023.0,539.75,562.2
1160,1555416594.3900702,675.0,600.0,750.0,513.0,1012.0,1022.0,544.3,565.6
1161,1555416594.459087,651.0,866.0,0.0,513.0,1012.0,1023.0,546.85,578.2
1162,1555416594.540591,653.0,540.0,0.0,513.0,1012.0,1023.0,550.15,574.65
1163,1555416594.6229005,706.0,264.0,1.0,513.0,1012.0,1023.0,560.85,555.8
1164,1555416594.7047608,674.0,288.0,0.0,513.0,1012.0,1023.0,569.25,542.95
1165,1555416594.7929575,612.0,550.0,248.0,513.0,1012.0,1023.0,573.75,520.05
1166,1555416594.8660104,550.0,529.0,583.0,513.0,890.0,1023.0,576.5,495.85
1167,1555416594.9666271,488.0,344.0,1004.0,513.0,890.0,1023.0,579.45,482.8
1168,1555416595.0481677,494.0,354.0,1021.0,513.0,890.0,1023.0,580.95,495.75
1169,1555416595.1214008,516.0,584.0,1021.0,513.0,890.0,1023.0,582.1,499.55
1170,1555416595.1978858,502.0,628.0,819.0,513.0,890.0,1023.0,576.75,496.65
1171,1555416595.270883,508.0,621.0,304.0,513.0,857.0,1023.0,570.6,527.65
1172,1555416595.3430288,519.0,541.0,0.0,513.0,627.0,1023.0,565.1,553.0
1173,1555416595.4150224,450.0,368.0,1.0,513.0,627.0,1023.0,553.7,549.4
1174,1555416595.513772,496.0,346.0,20.0,513.0,627.0,1023.0,545.55,532.6
1175,1555416595.6017382,515.0,399.0,181.0,405.0,627.0,1023.0,530.6,512.8
1176,1555416595.67922,487.0,434.0,322.0,405.0,602.0,1023.0,534.3,489.95
1177,1555416595.760056,449.0,420.0,894.0,330.0,602.0,1023.0,541.7,474.6
1178,1555416595.8356178,510.0,587.0,1023.0,257.0,602.0,1023.0,548.4,488.2
1179,1555416595.9213555,459.0,601.0,1022.0,257.0,602.0,1023.0,545.7,493.2
1180,1555416595.9998436,409.0,325.0,1022.0,297.0,602.0,1023.0,532.4,479.45
1181,1555416596.0710745,474.0,418.0,1021.0,297.0,364.0,1023.0,523.55,457.05
1182,1555416596.1680884,502.0,383.0,984.0,297.0,364.0,1023.0,516.0,449.2
1183,1555416596.2845576,555.0,763.0,222.0,265.0,475.0,1023.0,508.45,474.15
1184,1555416596.364653,529.0,817.0,107.0,203.0,492.0,1023.0,501.2,500.6
1185,1555416596.4402058,479.0,707.0,0.0,146.0,492.0,1023.0,494.55,508.45
1186,1555416596.525982,404.0,621.0,11.0,151.0,492.0,1023.0,487.25,513.05
1187,1555416596.6017659,422.0,643.0,171.0,151.0,492.0,1023.0,483.95,528.0
1188,1555416596.6821842,504.0,487.0,583.0,151.0,492.0,1023.0,484.45,534.65
1189,1555416596.75699,477.0,403.0,992.0,151.0,492.0,1023.0,482.5,525.6
1190,1555416596.8312788,550.0,545.0,1021.0,151.0,492.0,1023.0,484.9,521.45
1191,1555416596.9258494,527.0,489.0,880.0,151.0,492.0,1023.0,485.85,514.85
1192,1555416597.0064032,442.0,276.0,641.0,151.0,541.0,1023.0,482.0,501.6
1193,1555416597.0893638,444.0,396.0,0.0,151.0,541.0,1023.0,481.7,503.0
1194,1555416597.173914,625.0,516.0,0.0,221.0,541.0,1023.0,488.15,511.5
1195,1555416597.265577,528.0,626.0,0.0,221.0,541.0,1023.0,488.8,522.85
1196,1555416597.3442953,490.0,595.0,121.0,221.0,541.0,1023.0,488.95,530.9
1197,1555416597.4187527,491.0,500.0,2.0,221.0,541.0,1023.0,491.05,534.9
1198,1555416597.501509,503.0,406.0,1.0,221.0,541.0,1022.0,490.7,525.85
1199,1555416597.585871,448.0,474.0,369.0,221.0,541.0,1022.0,490.15,519.5
1200,1555416597.667011,370.0,390.0,636.0,255.0,541.0,1021.0,488.2,522.75
1201,1555416597.7398164,406.0,391.0,897.0,255.0,541.0,1021.0,484.8,521.4
1202,1555416597.811019,476.0,424.0,1022.0,255.0,541.0,1022.0,483.5,523.45
1203,1555416597.8901236,403.0,564.0,1022.0,255.0,541.0,1022.0,475.9,513.5
1204,1555416597.9696238,430.0,616.0,1022.0,255.0,431.0,1022.0,470.95,503.45
1205,1555416598.0568364,433.0,769.0,994.0,255.0,493.0,1022.0,468.65,506.55
1206,1555416598.1325667,470.0,540.0,863.0,255.0,493.0,1022.0,471.95,502.5
1207,1555416598.2090514,484.0,489.0,517.0,255.0,493.0,1022.0,475.05,494.8
1208,1555416598.2834115,467.0,553.0,131.0,255.0,493.0,1022.0,473.2,498.1
1209,1555416598.361782,499.0,572.0,417.0,255.0,493.0,1022.0,474.3,506.55
1210,1555416598.4314861,533.0,643.0,545.0,255.0,493.0,1022.0,473.45,511.45
1211,1555416598.5013485,523.0,610.0,543.0,255.0,493.0,1022.0,473.25,517.5
1212,1555416598.5915005,588.0,754.0,362.0,255.0,379.0,1022.0,480.55,541.4
1213,1555416598.6672957,540.0,336.0,210.0,255.0,433.0,1022.0,485.35,538.4
1214,1555416598.7463307,454.0,288.0,196.0,218.0,481.0,1022.0,476.8,527.0
1215,1555416598.8156753,524.0,362.0,657.0,218.0,481.0,1021.0,476.6,513.8
1216,1555416598.9115276,589.0,543.0,711.0,219.0,481.0,1021.0,481.55,511.2
1217,1555416598.9870164,460.0,446.0,571.0,219.0,481.0,1021.0,480.0,508.5
1218,1555416599.0589197,415.0,579.0,409.0,219.0,481.0,891.0,475.6,517.15
1219,1555416599.1512735,503.0,675.0,438.0,219.0,481.0,891.0,478.35,527.2
1220,1555416599.2332315,603.0,271.0,687.0,200.0,498.0,891.0,490.0,521.25
1221,1555416599.3083057,587.0,400.0,753.0,200.0,498.0,891.0,499.05,521.7
1222,1555416599.3874817,519.0,138.0,711.0,200.0,631.0,891.0,501.2,507.4
1223,1555416599.4671881,500.0,139.0,438.0,188.0,631.0,891.0,506.05,486.15
1224,1555416599.5605276,516.0,607.0,249.0,188.0,631.0,863.0,510.35,485.7
1225,1555416599.648362,407.0,444.0,519.0,196.0,616.0,732.0,509.05,469.45
1226,1555416599.7210658,462.0,345.0,320.0,196.0,616.0,622.0,508.65,459.7
1227,1555416599.817311,583.0,600.0,656.0,196.0,616.0,622.0,513.6,465.25
1228,1555416599.8906937,604.0,556.0,892.0,197.0,616.0,696.0,520.45,465.4
1229,1555416599.9685507,552.0,578.0,799.0,197.0,616.0,696.0,523.1,465.7
1230,1555416600.047981,536.0,506.0,604.0,197.0,616.0,696.0,523.25,458.85
1231,1555416600.1211638,499.0,335.0,430.0,197.0,616.0,696.0,522.05,445.1
1232,1555416600.1915696,461.0,373.0,275.0,197.0,537.0,696.0,515.7,426.05
1233,1555416600.2655694,452.0,420.0,365.0,197.0,537.0,696.0,511.3,430.25
1234,1555416600.3450398,505.0,758.0,553.0,197.0,620.0,643.0,513.85,453.75
1235,1555416600.4170477,551.0,679.0,886.0,197.0,620.0,643.0,515.2,469.6
1236,1555416600.4933305,445.0,579.0,913.0,197.0,620.0,664.0,508.0,471.4
1237,1555416600.5733645,454.0,552.0,792.0,197.0,620.0,664.0,507.7,476.7
1238,1555416600.6426072,473.0,474.0,917.0,197.0,620.0,668.0,510.6,471.45
1239,1555416600.7315228,470.0,436.0,493.0,197.0,620.0,668.0,508.95,459.5
1240,1555416600.8127518,474.0,390.0,120.0,197.0,620.0,797.0,502.5,465.45
1241,1555416600.8995457,549.0,688.0,205.0,197.0,620.0,797.0,500.6,479.85
1242,1555416600.9841125,495.0,537.0,522.0,197.0,619.0,797.0,499.4,499.8
1243,1555416601.059397,479.0,559.0,697.0,197.0,423.0,797.0,498.35,520.8
1244,1555416601.1380637,442.0,556.0,490.0,197.0,423.0,797.0,494.65,518.25
1245,1555416601.2087934,439.0,453.0,409.0,165.0,423.0,797.0,496.25,518.7
1246,1555416601.2892647,516.0,581.0,409.0,165.0,423.0,797.0,498.95,530.5
1247,1555416601.3881357,514.0,661.0,392.0,165.0,423.0,797.0,495.5,533.55
1248,1555416601.4701376,540.0,718.0,499.0,113.0,423.0,797.0,492.3,541.65
1249,1555416601.5493429,486.0,899.0,637.0,112.0,564.0,797.0,489.0,557.7
1250,1555416601.6305108,542.0,569.0,681.0,112.0,564.0,797.0,489.3,560.85
1251,1555416601.7113492,529.0,340.0,555.0,112.0,559.0,797.0,490.8,561.1
1252,1555416601.7915843,463.0,454.0,339.0,112.0,559.0,797.0,490.9,565.15
1253,1555416601.8695593,439.0,902.0,106.0,112.0,562.0,811.0,490.25,589.25
1254,1555416601.9539723,505.0,625.0,537.0,112.0,562.0,811.0,490.25,582.6
1255,1555416602.0310624,501.0,505.0,588.0,110.0,562.0,811.0,487.75,573.9
1256,1555416602.1270409,561.0,416.0,700.0,122.0,562.0,811.0,493.55,565.75
1257,1555416602.2081368,532.0,292.0,560.0,122.0,610.0,811.0,497.45,552.75
1258,1555416602.3084903,462.0,453.0,843.0,122.0,610.0,737.0,496.9,551.7
1259,1555416602.3875942,462.0,663.0,978.0,122.0,610.0,872.0,496.5,563.05
