,emg_ampl_0,emg_ampl_1,emg_ampl_2,emg_min_0,emg_min_1,emg_min_2,emg_med_0,emg_med_1,emg_med_2,emg_0,emg_1,emg_2,emg_max_0,emg_max_1,emg_max_2,emg_prev_0_0,emg_prev_0_1,emg_prev_0_2,emg_prev_0_3,emg_prev_0_4,emg_prev_0_5,emg_prev_0_6,emg_prev_0_7,emg_prev_0_8,emg_prev_0_9,emg_prev_0_10,emg_prev_0_11,emg_prev_0_12,emg_prev_0_13,emg_prev_0_14,emg_prev_0_15,emg_prev_0_16,emg_prev_0_17,emg_prev_0_18,emg_prev_0_19,emg_prev_1_0,emg_prev_1_1,emg_prev_1_2,emg_prev_1_3,emg_prev_1_4,emg_prev_1_5,emg_prev_1_6,emg_prev_1_7,emg_prev_1_8,emg_prev_1_9,emg_prev_1_10,emg_prev_1_11,emg_prev_1_12,emg_prev_1_13,emg_prev_1_14,emg_prev_1_15,emg_prev_1_16,emg_prev_1_17,emg_prev_1_18,emg_prev_1_19,emg_prev_2_0,emg_prev_2_1,emg_prev_2_2,emg_prev_2_3,emg_prev_2_4,emg_prev_2_5,emg_prev_2_6,emg_prev_2_7,emg_prev_2_8,emg_prev_2_9,emg_prev_2_10,emg_prev_2_11,emg_prev_2_12,emg_prev_2_13,emg_prev_2_14,emg_prev_2_15,emg_prev_2_16,emg_prev_2_17,emg_prev_2_18,emg_prev_2_19
0,163.0,81.0,107.0,440.0,490.0,458.0,512.8333333333334,508.73333333333335,510.43333333333334,506.0,504.0,532.0,594.0,561.0,539.0,588.0,527.0,501.0,449.0,594.0,529.0,440.0,534.0,508.0,513.0,528.0,508.0,527.0,470.0,507.0,545.0,518.0,495.0,550.0,506.0,524.0,520.0,509.0,513.0,507.0,496.0,541.0,508.0,500.0,516.0,505.0,496.0,511.0,504.0,492.0,508.0,520.0,490.0,561.0,504.0,501.0,523.0,514.0,500.0,539.0,490.0,507.0,480.0,522.0,515.0,493.0,527.0,504.0,527.0,498.0,490.0,497.0,525.0,458.0,532.0
0,163.0,81.0,107.0,440.0,490.0,458.0,512.8333333333334,508.73333333333335,510.43333333333334,506.0,504.0,532.0,594.0,561.0,539.0,588.0,527.0,501.0,449.0,594.0,529.0,440.0,534.0,508.0,513.0,528.0,508.0,527.0,470.0,507.0,545.0,518.0,495.0,550.0,506.0,524.0,520.0,509.0,513.0,507.0,496.0,541.0,508.0,500.0,516.0,505.0,496.0,511.0,504.0,492.0,508.0,520.0,490.0,561.0,504.0,501.0,523.0,514.0,500.0,539.0,490.0,507.0,480.0,522.0,515.0,493.0,527.0,504.0,527.0,498.0,490.0,497.0,525.0,458.0,532.0
0,163.0,81.0,107.0,440.0,490.0,458.0,513.2666666666667,509.56666666666666,508.8,522.0,518.0,500.0,594.0,561.0,539.0,527.0,501.0,449.0,594.0,529.0,440.0,534.0,508.0,513.0,528.0,508.0,527.0,470.0,507.0,545.0,518.0,495.0,550.0,506.0,522.0,520.0,509.0,513.0,507.0,496.0,541.0,508.0,500.0,516.0,505.0,496.0,511.0,504.0,492.0,508.0,520.0,490.0,561.0,504.0,518.0,523.0,514.0,500.0,539.0,490.0,507.0,480.0,522.0,515.0,493.0,527.0,504.0,527.0,498.0,490.0,497.0,525.0,458.0,532.0,500.0
0,163.0,81.0,107.0,440.0,490.0,458.0,513.1666666666666,510.3333333333333,510.46666666666664,520.0,508.0,544.0,594.0,561.0,544.0,501.0,449.0,594.0,529.0,440.0,534.0,508.0,513.0,528.0,508.0,527.0,470.0,507.0,545.0,518.0,495.0,550.0,506.0,522.0,520.0,509.0,513.0,507.0,496.0,541.0,508.0,500.0,516.0,505.0,496.0,511.0,504.0,492.0,508.0,520.0,490.0,561.0,504.0,518.0,508.0,514.0,500.0,539.0,490.0,507.0,480.0,522.0,515.0,493.0,527.0,504.0,527.0,498.0,490.0,497.0,525.0,458.0,532.0,500.0,544.0
0,163.0,71.0,107.0,440.0,490.0,458.0,513.2333333333333,510.9,510.0,520.0,497.0,506.0,594.0,561.0,544.0,449.0,594.0,529.0,440.0,534.0,508.0,513.0,528.0,508.0,527.0,470.0,507.0,545.0,518.0,495.0,550.0,506.0,522.0,520.0,520.0,513.0,507.0,496.0,541.0,508.0,500.0,516.0,505.0,496.0,511.0,504.0,492.0,508.0,520.0,490.0,561.0,504.0,518.0,508.0,497.0,500.0,539.0,490.0,507.0,480.0,522.0,515.0,493.0,527.0,504.0,527.0,498.0,490.0,497.0,525.0,458.0,532.0,500.0,544.0,506.0
0,163.0,90.0,93.0,440.0,471.0,458.0,514.7,510.03333333333336,508.7,517.0,471.0,526.0,594.0,561.0,544.0,594.0,529.0,440.0,534.0,508.0,513.0,528.0,508.0,527.0,470.0,507.0,545.0,518.0,495.0,550.0,506.0,522.0,520.0,520.0,517.0,507.0,496.0,541.0,508.0,500.0,516.0,505.0,496.0,511.0,504.0,492.0,508.0,520.0,490.0,561.0,504.0,518.0,508.0,497.0,471.0,539.0,490.0,507.0,480.0,522.0,515.0,493.0,527.0,504.0,527.0,498.0,490.0,497.0,525.0,458.0,532.0,500.0,544.0,506.0,526.0
0,163.0,90.0,93.0,440.0,471.0,458.0,514.3666666666667,509.9,507.43333333333334,500.0,487.0,508.0,550.0,561.0,544.0,529.0,440.0,534.0,508.0,513.0,528.0,508.0,527.0,470.0,507.0,545.0,518.0,495.0,550.0,506.0,522.0,520.0,520.0,517.0,500.0,496.0,541.0,508.0,500.0,516.0,505.0,496.0,511.0,504.0,492.0,508.0,520.0,490.0,561.0,504.0,518.0,508.0,497.0,471.0,487.0,490.0,507.0,480.0,522.0,515.0,493.0,527.0,504.0,527.0,498.0,490.0,497.0,525.0,458.0,532.0,500.0,544.0,506.0,526.0,508.0
0,163.0,90.0,93.0,440.0,471.0,458.0,513.6666666666666,510.26666666666665,508.73333333333335,506.0,506.0,514.0,550.0,561.0,544.0,440.0,534.0,508.0,513.0,528.0,508.0,527.0,470.0,507.0,545.0,518.0,495.0,550.0,506.0,522.0,520.0,520.0,517.0,500.0,506.0,541.0,508.0,500.0,516.0,505.0,496.0,511.0,504.0,492.0,508.0,520.0,490.0,561.0,504.0,518.0,508.0,497.0,471.0,487.0,506.0,507.0,480.0,522.0,515.0,493.0,527.0,504.0,527.0,498.0,490.0,497.0,525.0,458.0,532.0,500.0,544.0,506.0,526.0,508.0,514.0
0,163.0,90.0,93.0,470.0,471.0,458.0,513.1666666666666,509.8,510.23333333333335,507.0,513.0,511.0,550.0,561.0,544.0,534.0,508.0,513.0,528.0,508.0,527.0,470.0,507.0,545.0,518.0,495.0,550.0,506.0,522.0,520.0,520.0,517.0,500.0,506.0,507.0,508.0,500.0,516.0,505.0,496.0,511.0,504.0,492.0,508.0,520.0,490.0,561.0,504.0,518.0,508.0,497.0,471.0,487.0,506.0,513.0,480.0,522.0,515.0,493.0,527.0,504.0,527.0,498.0,490.0,497.0,525.0,458.0,532.0,500.0,544.0,506.0,526.0,508.0,514.0,511.0
0,163.0,90.0,93.0,470.0,471.0,458.0,513.0666666666667,508.8666666666667,511.6333333333333,501.0,507.0,513.0,550.0,561.0,544.0,508.0,513.0,528.0,508.0,527.0,470.0,507.0,545.0,518.0,495.0,550.0,506.0,522.0,520.0,520.0,517.0,500.0,506.0,507.0,501.0,500.0,516.0,505.0,496.0,511.0,504.0,492.0,508.0,520.0,490.0,561.0,504.0,518.0,508.0,497.0,471.0,487.0,506.0,513.0,507.0,522.0,515.0,493.0,527.0,504.0,527.0,498.0,490.0,497.0,525.0,458.0,532.0,500.0,544.0,506.0,526.0,508.0,514.0,511.0,513.0
0,163.0,90.0,93.0,470.0,471.0,458.0,512.8,508.06666666666666,511.26666666666665,523.0,493.0,523.0,550.0,561.0,544.0,513.0,528.0,508.0,527.0,470.0,507.0,545.0,518.0,495.0,550.0,506.0,522.0,520.0,520.0,517.0,500.0,506.0,507.0,501.0,523.0,516.0,505.0,496.0,511.0,504.0,492.0,508.0,520.0,490.0,561.0,504.0,518.0,508.0,497.0,471.0,487.0,506.0,513.0,507.0,493.0,515.0,493.0,527.0,504.0,527.0,498.0,490.0,497.0,525.0,458.0,532.0,500.0,544.0,506.0,526.0,508.0,514.0,511.0,513.0,523.0
0,154.0,90.0,145.0,470.0,471.0,458.0,516.1666666666666,507.3,513.0,532.0,494.0,603.0,550.0,561.0,603.0,528.0,508.0,527.0,470.0,507.0,545.0,518.0,495.0,550.0,506.0,522.0,520.0,520.0,517.0,500.0,506.0,507.0,501.0,523.0,532.0,505.0,496.0,511.0,504.0,492.0,508.0,520.0,490.0,561.0,504.0,518.0,508.0,497.0,471.0,487.0,506.0,513.0,507.0,493.0,494.0,493.0,527.0,504.0,527.0,498.0,490.0,497.0,525.0,458.0,532.0,500.0,544.0,506.0,526.0,508.0,514.0,511.0,513.0,523.0,603.0
0,154.0,90.0,145.0,470.0,471.0,458.0,514.5333333333333,506.56666666666666,511.76666666666665,539.0,502.0,464.0,550.0,561.0,603.0,508.0,527.0,470.0,507.0,545.0,518.0,495.0,550.0,506.0,522.0,520.0,520.0,517.0,500.0,506.0,507.0,501.0,523.0,532.0,539.0,496.0,511.0,504.0,492.0,508.0,520.0,490.0,561.0,504.0,518.0,508.0,497.0,471.0,487.0,506.0,513.0,507.0,493.0,494.0,502.0,527.0,504.0,527.0,498.0,490.0,497.0,525.0,458.0,532.0,500.0,544.0,506.0,526.0,508.0,514.0,511.0,513.0,523.0,603.0,464.0
0,154.0,90.0,145.0,470.0,471.0,458.0,514.2,507.0,510.7,517.0,533.0,491.0,550.0,561.0,603.0,527.0,470.0,507.0,545.0,518.0,495.0,550.0,506.0,522.0,520.0,520.0,517.0,500.0,506.0,507.0,501.0,523.0,532.0,539.0,517.0,511.0,504.0,492.0,508.0,520.0,490.0,561.0,504.0,518.0,508.0,497.0,471.0,487.0,506.0,513.0,507.0,493.0,494.0,502.0,533.0,504.0,527.0,498.0,490.0,497.0,525.0,458.0,532.0,500.0,544.0,506.0,526.0,508.0,514.0,511.0,513.0,523.0,603.0,464.0,491.0
0,154.0,90.0,145.0,470.0,471.0,458.0,515.0666666666667,507.1,511.43333333333334,527.0,512.0,536.0,550.0,561.0,603.0,470.0,507.0,545.0,518.0,495.0,550.0,506.0,522.0,520.0,520.0,517.0,500.0,506.0,507.0,501.0,523.0,532.0,539.0,517.0,527.0,504.0,492.0,508.0,520.0,490.0,561.0,504.0,518.0,508.0,497.0,471.0,487.0,506.0,513.0,507.0,493.0,494.0,502.0,533.0,512.0,527.0,498.0,490.0,497.0,525.0,458.0,532.0,500.0,544.0,506.0,526.0,508.0,514.0,511.0,513.0,523.0,603.0,464.0,491.0,536.0
0,154.0,90.0,145.0,495.0,471.0,458.0,516.6333333333333,506.0,511.76666666666665,496.0,480.0,510.0,550.0,561.0,603.0,507.0,545.0,518.0,495.0,550.0,506.0,522.0,520.0,520.0,517.0,500.0,506.0,507.0,501.0,523.0,532.0,539.0,517.0,527.0,496.0,492.0,508.0,520.0,490.0,561.0,504.0,518.0,508.0,497.0,471.0,487.0,506.0,513.0,507.0,493.0,494.0,502.0,533.0,512.0,480.0,498.0,490.0,497.0,525.0,458.0,532.0,500.0,544.0,506.0,526.0,508.0,514.0,511.0,513.0,523.0,603.0,464.0,491.0,536.0,510.0
0,110.0,90.0,145.0,495.0,471.0,458.0,513.6333333333333,505.6666666666667,511.03333333333336,504.0,497.0,517.0,550.0,561.0,603.0,545.0,518.0,495.0,550.0,506.0,522.0,520.0,520.0,517.0,500.0,506.0,507.0,501.0,523.0,532.0,539.0,517.0,527.0,496.0,504.0,508.0,520.0,490.0,561.0,504.0,518.0,508.0,497.0,471.0,487.0,506.0,513.0,507.0,493.0,494.0,502.0,533.0,512.0,480.0,497.0,490.0,497.0,525.0,458.0,532.0,500.0,544.0,506.0,526.0,508.0,514.0,511.0,513.0,523.0,603.0,464.0,491.0,536.0,510.0,517.0
0,110.0,90.0,168.0,494.0,471.0,435.0,512.4666666666667,507.3666666666667,509.2,494.0,547.0,435.0,550.0,561.0,603.0,518.0,495.0,550.0,506.0,522.0,520.0,520.0,517.0,500.0,506.0,507.0,501.0,523.0,532.0,539.0,517.0,527.0,496.0,504.0,494.0,520.0,490.0,561.0,504.0,518.0,508.0,497.0,471.0,487.0,506.0,513.0,507.0,493.0,494.0,502.0,533.0,512.0,480.0,497.0,547.0,497.0,525.0,458.0,532.0,500.0,544.0,506.0,526.0,508.0,514.0,511.0,513.0,523.0,603.0,464.0,491.0,536.0,510.0,517.0,435.0
0,80.0,90.0,168.0,477.0,471.0,435.0,513.7,506.73333333333335,508.4,477.0,522.0,483.0,550.0,561.0,603.0,495.0,550.0,506.0,522.0,520.0,520.0,517.0,500.0,506.0,507.0,501.0,523.0,532.0,539.0,517.0,527.0,496.0,504.0,494.0,477.0,490.0,561.0,504.0,518.0,508.0,497.0,471.0,487.0,506.0,513.0,507.0,493.0,494.0,502.0,533.0,512.0,480.0,497.0,547.0,522.0,525.0,458.0,532.0,500.0,544.0,506.0,526.0,508.0,514.0,511.0,513.0,523.0,603.0,464.0,491.0,536.0,510.0,517.0,435.0,483.0
0,80.0,90.0,168.0,477.0,471.0,435.0,513.5333333333333,507.1,507.8,529.0,519.0,462.0,550.0,561.0,603.0,550.0,506.0,522.0,520.0,520.0,517.0,500.0,506.0,507.0,501.0,523.0,532.0,539.0,517.0,527.0,496.0,504.0,494.0,477.0,529.0,561.0,504.0,518.0,508.0,497.0,471.0,487.0,506.0,513.0,507.0,493.0,494.0,502.0,533.0,512.0,480.0,497.0,547.0,522.0,519.0,458.0,532.0,500.0,544.0,506.0,526.0,508.0,514.0,511.0,513.0,523.0,603.0,464.0,491.0,536.0,510.0,517.0,435.0,483.0,462.0
0,80.0,90.0,168.0,477.0,471.0,435.0,513.5333333333333,507.5,505.6666666666667,508.0,512.0,458.0,539.0,547.0,603.0,506.0,522.0,520.0,520.0,517.0,500.0,506.0,507.0,501.0,523.0,532.0,539.0,517.0,527.0,496.0,504.0,494.0,477.0,529.0,508.0,504.0,518.0,508.0,497.0,471.0,487.0,506.0,513.0,507.0,493.0,494.0,502.0,533.0,512.0,480.0,497.0,547.0,522.0,519.0,512.0,532.0,500.0,544.0,506.0,526.0,508.0,514.0,511.0,513.0,523.0,603.0,464.0,491.0,536.0,510.0,517.0,435.0,483.0,462.0,458.0
0,80.0,90.0,168.0,477.0,471.0,435.0,512.9,506.73333333333335,504.06666666666666,494.0,493.0,467.0,539.0,547.0,603.0,522.0,520.0,520.0,517.0,500.0,506.0,507.0,501.0,523.0,532.0,539.0,517.0,527.0,496.0,504.0,494.0,477.0,529.0,508.0,494.0,518.0,508.0,497.0,471.0,487.0,506.0,513.0,507.0,493.0,494.0,502.0,533.0,512.0,480.0,497.0,547.0,522.0,519.0,512.0,493.0,500.0,544.0,506.0,526.0,508.0,514.0,511.0,513.0,523.0,603.0,464.0,491.0,536.0,510.0,517.0,435.0,483.0,462.0,458.0,467.0
0,80.0,90.0,168.0,477.0,471.0,435.0,511.46666666666664,507.06666666666666,505.4,485.0,515.0,533.0,539.0,547.0,603.0,520.0,520.0,517.0,500.0,506.0,507.0,501.0,523.0,532.0,539.0,517.0,527.0,496.0,504.0,494.0,477.0,529.0,508.0,494.0,485.0,508.0,497.0,471.0,487.0,506.0,513.0,507.0,493.0,494.0,502.0,533.0,512.0,480.0,497.0,547.0,522.0,519.0,512.0,493.0,515.0,544.0,506.0,526.0,508.0,514.0,511.0,513.0,523.0,603.0,464.0,491.0,536.0,510.0,517.0,435.0,483.0,462.0,458.0,467.0,533.0
0,80.0,90.0,168.0,477.0,471.0,435.0,512.4333333333333,507.56666666666666,504.1333333333333,537.0,511.0,489.0,539.0,547.0,603.0,520.0,517.0,500.0,506.0,507.0,501.0,523.0,532.0,539.0,517.0,527.0,496.0,504.0,494.0,477.0,529.0,508.0,494.0,485.0,537.0,497.0,471.0,487.0,506.0,513.0,507.0,493.0,494.0,502.0,533.0,512.0,480.0,497.0,547.0,522.0,519.0,512.0,493.0,515.0,511.0,506.0,526.0,508.0,514.0,511.0,513.0,523.0,603.0,464.0,491.0,536.0,510.0,517.0,435.0,483.0,462.0,458.0,467.0,533.0,489.0
0,80.0,90.0,168.0,477.0,471.0,435.0,511.1333333333333,507.06666666666666,505.7,488.0,496.0,551.0,539.0,547.0,603.0,517.0,500.0,506.0,507.0,501.0,523.0,532.0,539.0,517.0,527.0,496.0,504.0,494.0,477.0,529.0,508.0,494.0,485.0,537.0,488.0,471.0,487.0,506.0,513.0,507.0,493.0,494.0,502.0,533.0,512.0,480.0,497.0,547.0,522.0,519.0,512.0,493.0,515.0,511.0,496.0,526.0,508.0,514.0,511.0,513.0,523.0,603.0,464.0,491.0,536.0,510.0,517.0,435.0,483.0,462.0,458.0,467.0,533.0,489.0,551.0
0,73.0,90.0,168.0,477.0,480.0,435.0,512.7,506.3,504.3333333333333,517.0,481.0,486.0,539.0,547.0,603.0,500.0,506.0,507.0,501.0,523.0,532.0,539.0,517.0,527.0,496.0,504.0,494.0,477.0,529.0,508.0,494.0,485.0,537.0,488.0,517.0,487.0,506.0,513.0,507.0,493.0,494.0,502.0,533.0,512.0,480.0,497.0,547.0,522.0,519.0,512.0,493.0,515.0,511.0,496.0,481.0,508.0,514.0,511.0,513.0,523.0,603.0,464.0,491.0,536.0,510.0,517.0,435.0,483.0,462.0,458.0,467.0,533.0,489.0,551.0,486.0
0,73.0,90.0,168.0,477.0,480.0,435.0,512.7666666666667,506.73333333333335,503.23333333333335,509.0,505.0,465.0,539.0,547.0,603.0,506.0,507.0,501.0,523.0,532.0,539.0,517.0,527.0,496.0,504.0,494.0,477.0,529.0,508.0,494.0,485.0,537.0,488.0,517.0,509.0,506.0,513.0,507.0,493.0,494.0,502.0,533.0,512.0,480.0,497.0,547.0,522.0,519.0,512.0,493.0,515.0,511.0,496.0,481.0,505.0,514.0,511.0,513.0,523.0,603.0,464.0,491.0,536.0,510.0,517.0,435.0,483.0,462.0,458.0,467.0,533.0,489.0,551.0,486.0,465.0
0,73.0,90.0,168.0,477.0,480.0,435.0,511.46666666666664,506.43333333333334,504.8,506.0,499.0,537.0,539.0,547.0,603.0,507.0,501.0,523.0,532.0,539.0,517.0,527.0,496.0,504.0,494.0,477.0,529.0,508.0,494.0,485.0,537.0,488.0,517.0,509.0,506.0,513.0,507.0,493.0,494.0,502.0,533.0,512.0,480.0,497.0,547.0,522.0,519.0,512.0,493.0,515.0,511.0,496.0,481.0,505.0,499.0,511.0,513.0,523.0,603.0,464.0,491.0,536.0,510.0,517.0,435.0,483.0,462.0,458.0,467.0,533.0,489.0,551.0,486.0,465.0,537.0
0,73.0,90.0,168.0,477.0,480.0,435.0,510.53333333333336,505.56666666666666,506.6,490.0,494.0,551.0,539.0,547.0,603.0,501.0,523.0,532.0,539.0,517.0,527.0,496.0,504.0,494.0,477.0,529.0,508.0,494.0,485.0,537.0,488.0,517.0,509.0,506.0,490.0,507.0,493.0,494.0,502.0,533.0,512.0,480.0,497.0,547.0,522.0,519.0,512.0,493.0,515.0,511.0,496.0,481.0,505.0,499.0,494.0,513.0,523.0,603.0,464.0,491.0,536.0,510.0,517.0,435.0,483.0,462.0,458.0,467.0,533.0,489.0,551.0,486.0,465.0,537.0,551.0
0,73.0,90.0,236.0,477.0,480.0,435.0,510.26666666666665,507.26666666666665,511.46666666666664,487.0,541.0,671.0,539.0,547.0,671.0,523.0,532.0,539.0,517.0,527.0,496.0,504.0,494.0,477.0,529.0,508.0,494.0,485.0,537.0,488.0,517.0,509.0,506.0,490.0,487.0,493.0,494.0,502.0,533.0,512.0,480.0,497.0,547.0,522.0,519.0,512.0,493.0,515.0,511.0,496.0,481.0,505.0,499.0,494.0,541.0,523.0,603.0,464.0,491.0,536.0,510.0,517.0,435.0,483.0,462.0,458.0,467.0,533.0,489.0,551.0,486.0,465.0,537.0,551.0,671.0
0,62.0,76.0,236.0,477.0,480.0,435.0,509.43333333333334,505.3333333333333,511.9,525.0,503.0,471.0,539.0,547.0,671.0,532.0,539.0,517.0,527.0,496.0,504.0,494.0,477.0,529.0,508.0,494.0,485.0,537.0,488.0,517.0,509.0,506.0,490.0,487.0,525.0,494.0,502.0,533.0,512.0,480.0,497.0,547.0,522.0,519.0,512.0,493.0,515.0,511.0,496.0,481.0,505.0,499.0,494.0,541.0,503.0,603.0,464.0,491.0,536.0,510.0,517.0,435.0,483.0,462.0,458.0,467.0,533.0,489.0,551.0,486.0,465.0,537.0,551.0,671.0,471.0
0,62.0,76.0,236.0,477.0,480.0,435.0,509.8333333333333,505.8,515.1333333333333,518.0,518.0,629.0,539.0,547.0,671.0,539.0,517.0,527.0,496.0,504.0,494.0,477.0,529.0,508.0,494.0,485.0,537.0,488.0,517.0,509.0,506.0,490.0,487.0,525.0,518.0,502.0,533.0,512.0,480.0,497.0,547.0,522.0,519.0,512.0,493.0,515.0,511.0,496.0,481.0,505.0,499.0,494.0,541.0,503.0,518.0,464.0,491.0,536.0,510.0,517.0,435.0,483.0,462.0,458.0,467.0,533.0,489.0,551.0,486.0,465.0,537.0,551.0,671.0,471.0,629.0
0,62.0,76.0,268.0,477.0,480.0,403.0,509.8666666666667,505.7,511.9,523.0,515.0,403.0,537.0,547.0,671.0,517.0,527.0,496.0,504.0,494.0,477.0,529.0,508.0,494.0,485.0,537.0,488.0,517.0,509.0,506.0,490.0,487.0,525.0,518.0,523.0,533.0,512.0,480.0,497.0,547.0,522.0,519.0,512.0,493.0,515.0,511.0,496.0,481.0,505.0,499.0,494.0,541.0,503.0,518.0,515.0,491.0,536.0,510.0,517.0,435.0,483.0,462.0,458.0,467.0,533.0,489.0,551.0,486.0,465.0,537.0,551.0,671.0,471.0,629.0,403.0
0,62.0,76.0,268.0,477.0,480.0,403.0,508.96666666666664,505.23333333333335,513.2,493.0,494.0,583.0,537.0,547.0,671.0,527.0,496.0,504.0,494.0,477.0,529.0,508.0,494.0,485.0,537.0,488.0,517.0,509.0,506.0,490.0,487.0,525.0,518.0,523.0,493.0,512.0,480.0,497.0,547.0,522.0,519.0,512.0,493.0,515.0,511.0,496.0,481.0,505.0,499.0,494.0,541.0,503.0,518.0,515.0,494.0,536.0,510.0,517.0,435.0,483.0,462.0,458.0,467.0,533.0,489.0,551.0,486.0,465.0,537.0,551.0,671.0,471.0,629.0,403.0,583.0
0,62.0,76.0,268.0,477.0,480.0,403.0,508.23333333333335,505.0,514.1666666666666,498.0,490.0,535.0,537.0,547.0,671.0,496.0,504.0,494.0,477.0,529.0,508.0,494.0,485.0,537.0,488.0,517.0,509.0,506.0,490.0,487.0,525.0,518.0,523.0,493.0,498.0,480.0,497.0,547.0,522.0,519.0,512.0,493.0,515.0,511.0,496.0,481.0,505.0,499.0,494.0,541.0,503.0,518.0,515.0,494.0,490.0,510.0,517.0,435.0,483.0,462.0,458.0,467.0,533.0,489.0,551.0,486.0,465.0,537.0,551.0,671.0,471.0,629.0,403.0,583.0,535.0
0,73.0,67.0,268.0,466.0,481.0,403.0,506.53333333333336,506.7,512.4,466.0,522.0,473.0,537.0,547.0,671.0,504.0,494.0,477.0,529.0,508.0,494.0,485.0,537.0,488.0,517.0,509.0,506.0,490.0,487.0,525.0,518.0,523.0,493.0,498.0,466.0,497.0,547.0,522.0,519.0,512.0,493.0,515.0,511.0,496.0,481.0,505.0,499.0,494.0,541.0,503.0,518.0,515.0,494.0,490.0,522.0,517.0,435.0,483.0,462.0,458.0,467.0,533.0,489.0,551.0,486.0,465.0,537.0,551.0,671.0,471.0,629.0,403.0,583.0,535.0,473.0
0,73.0,67.0,268.0,466.0,481.0,403.0,506.2,508.53333333333336,514.9666666666667,490.0,542.0,585.0,537.0,547.0,671.0,494.0,477.0,529.0,508.0,494.0,485.0,537.0,488.0,517.0,509.0,506.0,490.0,487.0,525.0,518.0,523.0,493.0,498.0,466.0,490.0,547.0,522.0,519.0,512.0,493.0,515.0,511.0,496.0,481.0,505.0,499.0,494.0,541.0,503.0,518.0,515.0,494.0,490.0,522.0,542.0,435.0,483.0,462.0,458.0,467.0,533.0,489.0,551.0,486.0,465.0,537.0,551.0,671.0,471.0,629.0,403.0,583.0,535.0,473.0,585.0
0,73.0,67.0,268.0,466.0,481.0,403.0,506.1333333333333,509.1666666666667,513.6333333333333,504.0,525.0,474.0,537.0,542.0,671.0,477.0,529.0,508.0,494.0,485.0,537.0,488.0,517.0,509.0,506.0,490.0,487.0,525.0,518.0,523.0,493.0,498.0,466.0,490.0,504.0,522.0,519.0,512.0,493.0,515.0,511.0,496.0,481.0,505.0,499.0,494.0,541.0,503.0,518.0,515.0,494.0,490.0,522.0,542.0,525.0,483.0,462.0,458.0,467.0,533.0,489.0,551.0,486.0,465.0,537.0,551.0,671.0,471.0,629.0,403.0,583.0,535.0,473.0,585.0,474.0
0,73.0,67.0,268.0,466.0,481.0,403.0,506.6,509.46666666666664,513.7333333333333,521.0,522.0,514.0,537.0,542.0,671.0,529.0,508.0,494.0,485.0,537.0,488.0,517.0,509.0,506.0,490.0,487.0,525.0,518.0,523.0,493.0,498.0,466.0,490.0,504.0,521.0,519.0,512.0,493.0,515.0,511.0,496.0,481.0,505.0,499.0,494.0,541.0,503.0,518.0,515.0,494.0,490.0,522.0,542.0,525.0,522.0,462.0,458.0,467.0,533.0,489.0,551.0,486.0,465.0,537.0,551.0,671.0,471.0,629.0,403.0,583.0,535.0,473.0,585.0,474.0,514.0
0,73.0,67.0,268.0,466.0,481.0,403.0,507.3666666666667,509.6,512.4666666666667,524.0,511.0,475.0,537.0,542.0,671.0,508.0,494.0,485.0,537.0,488.0,517.0,509.0,506.0,490.0,487.0,525.0,518.0,523.0,493.0,498.0,466.0,490.0,504.0,521.0,524.0,512.0,493.0,515.0,511.0,496.0,481.0,505.0,499.0,494.0,541.0,503.0,518.0,515.0,494.0,490.0,522.0,542.0,525.0,522.0,511.0,458.0,467.0,533.0,489.0,551.0,486.0,465.0,537.0,551.0,671.0,471.0,629.0,403.0,583.0,535.0,473.0,585.0,474.0,514.0,475.0
0,73.0,67.0,268.0,466.0,481.0,403.0,506.3,510.1333333333333,512.0,491.0,509.0,509.0,537.0,542.0,671.0,494.0,485.0,537.0,488.0,517.0,509.0,506.0,490.0,487.0,525.0,518.0,523.0,493.0,498.0,466.0,490.0,504.0,521.0,524.0,491.0,493.0,515.0,511.0,496.0,481.0,505.0,499.0,494.0,541.0,503.0,518.0,515.0,494.0,490.0,522.0,542.0,525.0,522.0,511.0,509.0,467.0,533.0,489.0,551.0,486.0,465.0,537.0,551.0,671.0,471.0,629.0,403.0,583.0,535.0,473.0,585.0,474.0,514.0,475.0,509.0
0,73.0,67.0,268.0,466.0,481.0,403.0,505.76666666666665,510.7,507.3666666666667,516.0,511.0,464.0,537.0,542.0,671.0,485.0,537.0,488.0,517.0,509.0,506.0,490.0,487.0,525.0,518.0,523.0,493.0,498.0,466.0,490.0,504.0,521.0,524.0,491.0,516.0,515.0,511.0,496.0,481.0,505.0,499.0,494.0,541.0,503.0,518.0,515.0,494.0,490.0,522.0,542.0,525.0,522.0,511.0,509.0,511.0,533.0,489.0,551.0,486.0,465.0,537.0,551.0,671.0,471.0,629.0,403.0,583.0,535.0,473.0,585.0,474.0,514.0,475.0,509.0,464.0
0,71.0,67.0,268.0,466.0,481.0,403.0,504.1333333333333,510.0,509.06666666666666,490.0,481.0,515.0,537.0,542.0,671.0,537.0,488.0,517.0,509.0,506.0,490.0,487.0,525.0,518.0,523.0,493.0,498.0,466.0,490.0,504.0,521.0,524.0,491.0,516.0,490.0,511.0,496.0,481.0,505.0,499.0,494.0,541.0,503.0,518.0,515.0,494.0,490.0,522.0,542.0,525.0,522.0,511.0,509.0,511.0,481.0,489.0,551.0,486.0,465.0,537.0,551.0,671.0,471.0,629.0,403.0,583.0,535.0,473.0,585.0,474.0,514.0,475.0,509.0,464.0,515.0
0,95.0,67.0,268.0,466.0,481.0,403.0,505.6,509.3666666666667,511.3,561.0,514.0,558.0,561.0,542.0,671.0,488.0,517.0,509.0,506.0,490.0,487.0,525.0,518.0,523.0,493.0,498.0,466.0,490.0,504.0,521.0,524.0,491.0,516.0,490.0,561.0,496.0,481.0,505.0,499.0,494.0,541.0,503.0,518.0,515.0,494.0,490.0,522.0,542.0,525.0,522.0,511.0,509.0,511.0,481.0,514.0,551.0,486.0,465.0,537.0,551.0,671.0,471.0,629.0,403.0,583.0,535.0,473.0,585.0,474.0,514.0,475.0,509.0,464.0,515.0,558.0
0,95.0,67.0,268.0,466.0,481.0,403.0,505.2,510.4,510.46666666666664,515.0,543.0,511.0,561.0,543.0,671.0,517.0,509.0,506.0,490.0,487.0,525.0,518.0,523.0,493.0,498.0,466.0,490.0,504.0,521.0,524.0,491.0,516.0,490.0,561.0,515.0,481.0,505.0,499.0,494.0,541.0,503.0,518.0,515.0,494.0,490.0,522.0,542.0,525.0,522.0,511.0,509.0,511.0,481.0,514.0,543.0,486.0,465.0,537.0,551.0,671.0,471.0,629.0,403.0,583.0,535.0,473.0,585.0,474.0,514.0,475.0,509.0,464.0,515.0,558.0,511.0
0,95.0,66.0,268.0,466.0,481.0,403.0,506.53333333333336,511.6666666666667,509.96666666666664,536.0,518.0,495.0,561.0,543.0,671.0,509.0,506.0,490.0,487.0,525.0,518.0,523.0,493.0,498.0,466.0,490.0,504.0,521.0,524.0,491.0,516.0,490.0,561.0,515.0,536.0,505.0,499.0,494.0,541.0,503.0,518.0,515.0,494.0,490.0,522.0,542.0,525.0,522.0,511.0,509.0,511.0,481.0,514.0,543.0,518.0,465.0,537.0,551.0,671.0,471.0,629.0,403.0,583.0,535.0,473.0,585.0,474.0,514.0,475.0,509.0,464.0,515.0,558.0,511.0,495.0
0,95.0,66.0,268.0,466.0,481.0,403.0,506.1333333333333,511.56666666666666,509.76666666666665,492.0,494.0,511.0,561.0,543.0,671.0,506.0,490.0,487.0,525.0,518.0,523.0,493.0,498.0,466.0,490.0,504.0,521.0,524.0,491.0,516.0,490.0,561.0,515.0,536.0,492.0,499.0,494.0,541.0,503.0,518.0,515.0,494.0,490.0,522.0,542.0,525.0,522.0,511.0,509.0,511.0,481.0,514.0,543.0,518.0,494.0,537.0,551.0,671.0,471.0,629.0,403.0,583.0,535.0,473.0,585.0,474.0,514.0,475.0,509.0,464.0,515.0,558.0,511.0,495.0,511.0
0,95.0,62.0,268.0,466.0,481.0,403.0,506.93333333333334,509.8666666666667,512.6333333333333,518.0,496.0,521.0,561.0,543.0,671.0,490.0,487.0,525.0,518.0,523.0,493.0,498.0,466.0,490.0,504.0,521.0,524.0,491.0,516.0,490.0,561.0,515.0,536.0,492.0,518.0,494.0,541.0,503.0,518.0,515.0,494.0,490.0,522.0,542.0,525.0,522.0,511.0,509.0,511.0,481.0,514.0,543.0,518.0,494.0,496.0,551.0,671.0,471.0,629.0,403.0,583.0,535.0,473.0,585.0,474.0,514.0,475.0,509.0,464.0,515.0,558.0,511.0,495.0,511.0,521.0
0,95.0,62.0,268.0,466.0,481.0,403.0,507.6333333333333,509.8666666666667,512.5,498.0,522.0,479.0,561.0,543.0,671.0,487.0,525.0,518.0,523.0,493.0,498.0,466.0,490.0,504.0,521.0,524.0,491.0,516.0,490.0,561.0,515.0,536.0,492.0,518.0,498.0,541.0,503.0,518.0,515.0,494.0,490.0,522.0,542.0,525.0,522.0,511.0,509.0,511.0,481.0,514.0,543.0,518.0,494.0,496.0,522.0,671.0,471.0,629.0,403.0,583.0,535.0,473.0,585.0,474.0,514.0,475.0,509.0,464.0,515.0,558.0,511.0,495.0,511.0,521.0,479.0
0,95.0,62.0,268.0,466.0,481.0,403.0,506.1,509.6,515.0666666666667,483.0,511.0,539.0,561.0,543.0,629.0,525.0,518.0,523.0,493.0,498.0,466.0,490.0,504.0,521.0,524.0,491.0,516.0,490.0,561.0,515.0,536.0,492.0,518.0,498.0,483.0,503.0,518.0,515.0,494.0,490.0,522.0,542.0,525.0,522.0,511.0,509.0,511.0,481.0,514.0,543.0,518.0,494.0,496.0,522.0,511.0,471.0,629.0,403.0,583.0,535.0,473.0,585.0,474.0,514.0,475.0,509.0,464.0,515.0,558.0,511.0,495.0,511.0,521.0,479.0,539.0
0,95.0,62.0,268.0,466.0,481.0,403.0,505.46666666666664,509.43333333333334,517.3333333333334,489.0,507.0,526.0,561.0,543.0,629.0,518.0,523.0,493.0,498.0,466.0,490.0,504.0,521.0,524.0,491.0,516.0,490.0,561.0,515.0,536.0,492.0,518.0,498.0,483.0,489.0,518.0,515.0,494.0,490.0,522.0,542.0,525.0,522.0,511.0,509.0,511.0,481.0,514.0,543.0,518.0,494.0,496.0,522.0,511.0,507.0,629.0,403.0,583.0,535.0,473.0,585.0,474.0,514.0,475.0,509.0,464.0,515.0,558.0,511.0,495.0,511.0,521.0,479.0,539.0,526.0
0,95.0,62.0,268.0,466.0,481.0,403.0,505.8333333333333,509.6,523.7,505.0,498.0,658.0,561.0,543.0,658.0,523.0,493.0,498.0,466.0,490.0,504.0,521.0,524.0,491.0,516.0,490.0,561.0,515.0,536.0,492.0,518.0,498.0,483.0,489.0,505.0,515.0,494.0,490.0,522.0,542.0,525.0,522.0,511.0,509.0,511.0,481.0,514.0,543.0,518.0,494.0,496.0,522.0,511.0,507.0,498.0,403.0,583.0,535.0,473.0,585.0,474.0,514.0,475.0,509.0,464.0,515.0,558.0,511.0,495.0,511.0,521.0,479.0,539.0,526.0,658.0
0,95.0,65.0,307.0,466.0,478.0,364.0,507.5,508.3666666666667,518.0666666666667,535.0,478.0,364.0,561.0,543.0,658.0,493.0,498.0,466.0,490.0,504.0,521.0,524.0,491.0,516.0,490.0,561.0,515.0,536.0,492.0,518.0,498.0,483.0,489.0,505.0,535.0,494.0,490.0,522.0,542.0,525.0,522.0,511.0,509.0,511.0,481.0,514.0,543.0,518.0,494.0,496.0,522.0,511.0,507.0,498.0,478.0,583.0,535.0,473.0,585.0,474.0,514.0,475.0,509.0,464.0,515.0,558.0,511.0,495.0,511.0,521.0,479.0,539.0,526.0,658.0,364.0
0,95.0,65.0,307.0,466.0,478.0,364.0,506.3333333333333,507.8333333333333,514.2,502.0,495.0,373.0,561.0,543.0,658.0,498.0,466.0,490.0,504.0,521.0,524.0,491.0,516.0,490.0,561.0,515.0,536.0,492.0,518.0,498.0,483.0,489.0,505.0,535.0,502.0,490.0,522.0,542.0,525.0,522.0,511.0,509.0,511.0,481.0,514.0,543.0,518.0,494.0,496.0,522.0,511.0,507.0,498.0,478.0,495.0,535.0,473.0,585.0,474.0,514.0,475.0,509.0,464.0,515.0,558.0,511.0,495.0,511.0,521.0,479.0,539.0,526.0,658.0,364.0,373.0
0,103.0,65.0,307.0,458.0,478.0,364.0,505.3333333333333,509.3666666666667,511.3333333333333,458.0,542.0,465.0,561.0,543.0,658.0,466.0,490.0,504.0,521.0,524.0,491.0,516.0,490.0,561.0,515.0,536.0,492.0,518.0,498.0,483.0,489.0,505.0,535.0,502.0,458.0,522.0,542.0,525.0,522.0,511.0,509.0,511.0,481.0,514.0,543.0,518.0,494.0,496.0,522.0,511.0,507.0,498.0,478.0,495.0,542.0,473.0,585.0,474.0,514.0,475.0,509.0,464.0,515.0,558.0,511.0,495.0,511.0,521.0,479.0,539.0,526.0,658.0,364.0,373.0,465.0
0,103.0,65.0,307.0,458.0,478.0,364.0,505.46666666666664,511.2,510.8333333333333,521.0,536.0,471.0,561.0,543.0,658.0,490.0,504.0,521.0,524.0,491.0,516.0,490.0,561.0,515.0,536.0,492.0,518.0,498.0,483.0,489.0,505.0,535.0,502.0,458.0,521.0,542.0,525.0,522.0,511.0,509.0,511.0,481.0,514.0,543.0,518.0,494.0,496.0,522.0,511.0,507.0,498.0,478.0,495.0,542.0,536.0,585.0,474.0,514.0,475.0,509.0,464.0,515.0,558.0,511.0,495.0,511.0,521.0,479.0,539.0,526.0,658.0,364.0,373.0,465.0,471.0
0,103.0,65.0,307.0,458.0,478.0,364.0,504.96666666666664,511.53333333333336,509.73333333333335,494.0,515.0,432.0,561.0,543.0,658.0,504.0,521.0,524.0,491.0,516.0,490.0,561.0,515.0,536.0,492.0,518.0,498.0,483.0,489.0,505.0,535.0,502.0,458.0,521.0,494.0,525.0,522.0,511.0,509.0,511.0,481.0,514.0,543.0,518.0,494.0,496.0,522.0,511.0,507.0,498.0,478.0,495.0,542.0,536.0,515.0,474.0,514.0,475.0,509.0,464.0,515.0,558.0,511.0,495.0,511.0,521.0,479.0,539.0,526.0,658.0,364.0,373.0,465.0,471.0,432.0
0,103.0,65.0,464.0,458.0,478.0,207.0,504.93333333333334,511.6333333333333,498.73333333333335,505.0,502.0,207.0,561.0,543.0,658.0,521.0,524.0,491.0,516.0,490.0,561.0,515.0,536.0,492.0,518.0,498.0,483.0,489.0,505.0,535.0,502.0,458.0,521.0,494.0,505.0,522.0,511.0,509.0,511.0,481.0,514.0,543.0,518.0,494.0,496.0,522.0,511.0,507.0,498.0,478.0,495.0,542.0,536.0,515.0,502.0,514.0,475.0,509.0,464.0,515.0,558.0,511.0,495.0,511.0,521.0,479.0,539.0,526.0,658.0,364.0,373.0,465.0,471.0,432.0,207.0
0,103.0,65.0,464.0,458.0,478.0,207.0,506.0,512.1666666666666,502.53333333333336,522.0,510.0,665.0,561.0,543.0,665.0,524.0,491.0,516.0,490.0,561.0,515.0,536.0,492.0,518.0,498.0,483.0,489.0,505.0,535.0,502.0,458.0,521.0,494.0,505.0,522.0,511.0,509.0,511.0,481.0,514.0,543.0,518.0,494.0,496.0,522.0,511.0,507.0,498.0,478.0,495.0,542.0,536.0,515.0,502.0,510.0,475.0,509.0,464.0,515.0,558.0,511.0,495.0,511.0,521.0,479.0,539.0,526.0,658.0,364.0,373.0,465.0,471.0,432.0,207.0,665.0
0,103.0,65.0,569.0,458.0,478.0,207.0,506.43333333333334,511.8333333333333,506.03333333333336,500.0,531.0,776.0,561.0,543.0,776.0,491.0,516.0,490.0,561.0,515.0,536.0,492.0,518.0,498.0,483.0,489.0,505.0,535.0,502.0,458.0,521.0,494.0,505.0,522.0,500.0,509.0,511.0,481.0,514.0,543.0,518.0,494.0,496.0,522.0,511.0,507.0,498.0,478.0,495.0,542.0,536.0,515.0,502.0,510.0,531.0,509.0,464.0,515.0,558.0,511.0,495.0,511.0,521.0,479.0,539.0,526.0,658.0,364.0,373.0,465.0,471.0,432.0,207.0,665.0,776.0
0,103.0,65.0,569.0,458.0,478.0,207.0,506.3333333333333,512.5666666666667,513.3666666666667,522.0,525.0,691.0,561.0,543.0,776.0,516.0,490.0,561.0,515.0,536.0,492.0,518.0,498.0,483.0,489.0,505.0,535.0,502.0,458.0,521.0,494.0,505.0,522.0,500.0,522.0,511.0,481.0,514.0,543.0,518.0,494.0,496.0,522.0,511.0,507.0,498.0,478.0,495.0,542.0,536.0,515.0,502.0,510.0,531.0,525.0,464.0,515.0,558.0,511.0,495.0,511.0,521.0,479.0,539.0,526.0,658.0,364.0,373.0,465.0,471.0,432.0,207.0,665.0,776.0,691.0
0,103.0,65.0,569.0,458.0,478.0,207.0,506.06666666666666,512.4666666666667,505.03333333333336,510.0,515.0,379.0,561.0,543.0,776.0,490.0,561.0,515.0,536.0,492.0,518.0,498.0,483.0,489.0,505.0,535.0,502.0,458.0,521.0,494.0,505.0,522.0,500.0,522.0,510.0,481.0,514.0,543.0,518.0,494.0,496.0,522.0,511.0,507.0,498.0,478.0,495.0,542.0,536.0,515.0,502.0,510.0,531.0,525.0,515.0,515.0,558.0,511.0,495.0,511.0,521.0,479.0,539.0,526.0,658.0,364.0,373.0,465.0,471.0,432.0,207.0,665.0,776.0,691.0,379.0
0,103.0,65.0,569.0,458.0,478.0,207.0,506.23333333333335,512.1,502.26666666666665,528.0,504.0,320.0,561.0,543.0,776.0,561.0,515.0,536.0,492.0,518.0,498.0,483.0,489.0,505.0,535.0,502.0,458.0,521.0,494.0,505.0,522.0,500.0,522.0,510.0,528.0,514.0,543.0,518.0,494.0,496.0,522.0,511.0,507.0,498.0,478.0,495.0,542.0,536.0,515.0,502.0,510.0,531.0,525.0,515.0,504.0,558.0,511.0,495.0,511.0,521.0,479.0,539.0,526.0,658.0,364.0,373.0,465.0,471.0,432.0,207.0,665.0,776.0,691.0,379.0,320.0
0,103.0,65.0,569.0,458.0,478.0,207.0,506.8666666666667,512.1,497.6,512.0,494.0,443.0,536.0,543.0,776.0,515.0,536.0,492.0,518.0,498.0,483.0,489.0,505.0,535.0,502.0,458.0,521.0,494.0,505.0,522.0,500.0,522.0,510.0,528.0,512.0,543.0,518.0,494.0,496.0,522.0,511.0,507.0,498.0,478.0,495.0,542.0,536.0,515.0,502.0,510.0,531.0,525.0,515.0,504.0,494.0,511.0,495.0,511.0,521.0,479.0,539.0,526.0,658.0,364.0,373.0,465.0,471.0,432.0,207.0,665.0,776.0,691.0,379.0,320.0,443.0
0,103.0,65.0,569.0,458.0,478.0,207.0,507.53333333333336,513.2666666666667,488.5,518.0,525.0,262.0,536.0,542.0,776.0,536.0,492.0,518.0,498.0,483.0,489.0,505.0,535.0,502.0,458.0,521.0,494.0,505.0,522.0,500.0,522.0,510.0,528.0,512.0,518.0,518.0,494.0,496.0,522.0,511.0,507.0,498.0,478.0,495.0,542.0,536.0,515.0,502.0,510.0,531.0,525.0,515.0,504.0,494.0,525.0,495.0,511.0,521.0,479.0,539.0,526.0,658.0,364.0,373.0,465.0,471.0,432.0,207.0,665.0,776.0,691.0,379.0,320.0,443.0,262.0
0,103.0,65.0,569.0,458.0,478.0,207.0,510.1333333333333,513.9666666666667,490.73333333333335,544.0,543.0,540.0,544.0,543.0,776.0,492.0,518.0,498.0,483.0,489.0,505.0,535.0,502.0,458.0,521.0,494.0,505.0,522.0,500.0,522.0,510.0,528.0,512.0,518.0,544.0,494.0,496.0,522.0,511.0,507.0,498.0,478.0,495.0,542.0,536.0,515.0,502.0,510.0,531.0,525.0,515.0,504.0,494.0,525.0,543.0,511.0,521.0,479.0,539.0,526.0,658.0,364.0,373.0,465.0,471.0,432.0,207.0,665.0,776.0,691.0,379.0,320.0,443.0,262.0,540.0
0,103.0,65.0,569.0,458.0,478.0,207.0,511.53333333333336,511.9,484.6666666666667,532.0,480.0,403.0,544.0,543.0,776.0,518.0,498.0,483.0,489.0,505.0,535.0,502.0,458.0,521.0,494.0,505.0,522.0,500.0,522.0,510.0,528.0,512.0,518.0,544.0,532.0,496.0,522.0,511.0,507.0,498.0,478.0,495.0,542.0,536.0,515.0,502.0,510.0,531.0,525.0,515.0,504.0,494.0,525.0,543.0,480.0,521.0,479.0,539.0,526.0,658.0,364.0,373.0,465.0,471.0,432.0,207.0,665.0,776.0,691.0,379.0,320.0,443.0,262.0,540.0,403.0
0,103.0,65.0,569.0,458.0,478.0,207.0,511.8333333333333,512.0333333333333,488.1,513.0,529.0,577.0,544.0,543.0,776.0,498.0,483.0,489.0,505.0,535.0,502.0,458.0,521.0,494.0,505.0,522.0,500.0,522.0,510.0,528.0,512.0,518.0,544.0,532.0,513.0,522.0,511.0,507.0,498.0,478.0,495.0,542.0,536.0,515.0,502.0,510.0,531.0,525.0,515.0,504.0,494.0,525.0,543.0,480.0,529.0,479.0,539.0,526.0,658.0,364.0,373.0,465.0,471.0,432.0,207.0,665.0,776.0,691.0,379.0,320.0,443.0,262.0,540.0,403.0,577.0
0,103.0,65.0,569.0,458.0,478.0,207.0,512.1,511.4,483.23333333333335,529.0,503.0,368.0,544.0,543.0,776.0,483.0,489.0,505.0,535.0,502.0,458.0,521.0,494.0,505.0,522.0,500.0,522.0,510.0,528.0,512.0,518.0,544.0,532.0,513.0,529.0,511.0,507.0,498.0,478.0,495.0,542.0,536.0,515.0,502.0,510.0,531.0,525.0,515.0,504.0,494.0,525.0,543.0,480.0,529.0,503.0,539.0,526.0,658.0,364.0,373.0,465.0,471.0,432.0,207.0,665.0,776.0,691.0,379.0,320.0,443.0,262.0,540.0,403.0,577.0,368.0
0,103.0,65.0,569.0,458.0,478.0,207.0,512.4333333333333,510.9,489.7,534.0,496.0,669.0,544.0,543.0,776.0,489.0,505.0,535.0,502.0,458.0,521.0,494.0,505.0,522.0,500.0,522.0,510.0,528.0,512.0,518.0,544.0,532.0,513.0,529.0,534.0,507.0,498.0,478.0,495.0,542.0,536.0,515.0,502.0,510.0,531.0,525.0,515.0,504.0,494.0,525.0,543.0,480.0,529.0,503.0,496.0,526.0,658.0,364.0,373.0,465.0,471.0,432.0,207.0,665.0,776.0,691.0,379.0,320.0,443.0,262.0,540.0,403.0,577.0,368.0,669.0
0,103.0,65.0,569.0,458.0,478.0,207.0,512.9,511.9,494.73333333333335,505.0,539.0,660.0,544.0,543.0,776.0,505.0,535.0,502.0,458.0,521.0,494.0,505.0,522.0,500.0,522.0,510.0,528.0,512.0,518.0,544.0,532.0,513.0,529.0,534.0,505.0,498.0,478.0,495.0,542.0,536.0,515.0,502.0,510.0,531.0,525.0,515.0,504.0,494.0,525.0,543.0,480.0,529.0,503.0,496.0,539.0,658.0,364.0,373.0,465.0,471.0,432.0,207.0,665.0,776.0,691.0,379.0,320.0,443.0,262.0,540.0,403.0,577.0,368.0,669.0,660.0
0,103.0,67.0,569.0,458.0,476.0,207.0,512.7666666666667,510.73333333333335,496.46666666666664,512.0,476.0,516.0,544.0,543.0,776.0,535.0,502.0,458.0,521.0,494.0,505.0,522.0,500.0,522.0,510.0,528.0,512.0,518.0,544.0,532.0,513.0,529.0,534.0,505.0,512.0,478.0,495.0,542.0,536.0,515.0,502.0,510.0,531.0,525.0,515.0,504.0,494.0,525.0,543.0,480.0,529.0,503.0,496.0,539.0,476.0,364.0,373.0,465.0,471.0,432.0,207.0,665.0,776.0,691.0,379.0,320.0,443.0,262.0,540.0,403.0,577.0,368.0,669.0,660.0,516.0
0,103.0,67.0,569.0,458.0,476.0,207.0,513.8,510.73333333333335,498.03333333333336,521.0,481.0,562.0,544.0,543.0,776.0,502.0,458.0,521.0,494.0,505.0,522.0,500.0,522.0,510.0,528.0,512.0,518.0,544.0,532.0,513.0,529.0,534.0,505.0,512.0,521.0,495.0,542.0,536.0,515.0,502.0,510.0,531.0,525.0,515.0,504.0,494.0,525.0,543.0,480.0,529.0,503.0,496.0,539.0,476.0,481.0,373.0,465.0,471.0,432.0,207.0,665.0,776.0,691.0,379.0,320.0,443.0,262.0,540.0,403.0,577.0,368.0,669.0,660.0,516.0,562.0
0,86.0,67.0,569.0,458.0,476.0,207.0,512.4666666666667,510.6333333333333,498.76666666666665,521.0,511.0,580.0,544.0,543.0,776.0,458.0,521.0,494.0,505.0,522.0,500.0,522.0,510.0,528.0,512.0,518.0,544.0,532.0,513.0,529.0,534.0,505.0,512.0,521.0,521.0,542.0,536.0,515.0,502.0,510.0,531.0,525.0,515.0,504.0,494.0,525.0,543.0,480.0,529.0,503.0,496.0,539.0,476.0,481.0,511.0,465.0,471.0,432.0,207.0,665.0,776.0,691.0,379.0,320.0,443.0,262.0,540.0,403.0,577.0,368.0,669.0,660.0,516.0,562.0,580.0
0,86.0,76.0,569.0,494.0,467.0,207.0,512.0666666666667,508.1,492.53333333333336,503.0,467.0,324.0,544.0,543.0,776.0,521.0,494.0,505.0,522.0,500.0,522.0,510.0,528.0,512.0,518.0,544.0,532.0,513.0,529.0,534.0,505.0,512.0,521.0,521.0,503.0,536.0,515.0,502.0,510.0,531.0,525.0,515.0,504.0,494.0,525.0,543.0,480.0,529.0,503.0,496.0,539.0,476.0,481.0,511.0,467.0,471.0,432.0,207.0,665.0,776.0,691.0,379.0,320.0,443.0,262.0,540.0,403.0,577.0,368.0,669.0,660.0,516.0,562.0,580.0,324.0
0,86.0,76.0,569.0,494.0,467.0,207.0,511.6333333333333,507.3666666666667,497.1,523.0,496.0,632.0,544.0,543.0,776.0,494.0,505.0,522.0,500.0,522.0,510.0,528.0,512.0,518.0,544.0,532.0,513.0,529.0,534.0,505.0,512.0,521.0,521.0,503.0,523.0,515.0,502.0,510.0,531.0,525.0,515.0,504.0,494.0,525.0,543.0,480.0,529.0,503.0,496.0,539.0,476.0,481.0,511.0,467.0,496.0,432.0,207.0,665.0,776.0,691.0,379.0,320.0,443.0,262.0,540.0,403.0,577.0,368.0,669.0,660.0,516.0,562.0,580.0,324.0,632.0
0,86.0,76.0,569.0,500.0,467.0,207.0,512.8666666666667,507.7,500.3333333333333,529.0,504.0,608.0,544.0,543.0,776.0,505.0,522.0,500.0,522.0,510.0,528.0,512.0,518.0,544.0,532.0,513.0,529.0,534.0,505.0,512.0,521.0,521.0,503.0,523.0,529.0,502.0,510.0,531.0,525.0,515.0,504.0,494.0,525.0,543.0,480.0,529.0,503.0,496.0,539.0,476.0,481.0,511.0,467.0,496.0,504.0,207.0,665.0,776.0,691.0,379.0,320.0,443.0,262.0,540.0,403.0,577.0,368.0,669.0,660.0,516.0,562.0,580.0,324.0,632.0,608.0
0,86.0,76.0,569.0,482.0,467.0,262.0,511.6666666666667,507.7,497.0,482.0,496.0,421.0,544.0,543.0,776.0,522.0,500.0,522.0,510.0,528.0,512.0,518.0,544.0,532.0,513.0,529.0,534.0,505.0,512.0,521.0,521.0,503.0,523.0,529.0,482.0,510.0,531.0,525.0,515.0,504.0,494.0,525.0,543.0,480.0,529.0,503.0,496.0,539.0,476.0,481.0,511.0,467.0,496.0,504.0,496.0,665.0,776.0,691.0,379.0,320.0,443.0,262.0,540.0,403.0,577.0,368.0,669.0,660.0,516.0,562.0,580.0,324.0,632.0,608.0,421.0
0,86.0,76.0,569.0,482.0,467.0,262.0,511.4,507.6666666666667,503.23333333333335,490.0,521.0,666.0,544.0,543.0,776.0,500.0,522.0,510.0,528.0,512.0,518.0,544.0,532.0,513.0,529.0,534.0,505.0,512.0,521.0,521.0,503.0,523.0,529.0,482.0,490.0,531.0,525.0,515.0,504.0,494.0,525.0,543.0,480.0,529.0,503.0,496.0,539.0,476.0,481.0,511.0,467.0,496.0,504.0,496.0,521.0,776.0,691.0,379.0,320.0,443.0,262.0,540.0,403.0,577.0,368.0,669.0,660.0,516.0,562.0,580.0,324.0,632.0,608.0,421.0,666.0
0,86.0,76.0,653.0,482.0,467.0,262.0,513.2666666666667,508.26666666666665,513.9333333333333,539.0,529.0,860.0,544.0,543.0,860.0,522.0,510.0,528.0,512.0,518.0,544.0,532.0,513.0,529.0,534.0,505.0,512.0,521.0,521.0,503.0,523.0,529.0,482.0,490.0,539.0,525.0,515.0,504.0,494.0,525.0,543.0,480.0,529.0,503.0,496.0,539.0,476.0,481.0,511.0,467.0,496.0,504.0,496.0,521.0,529.0,691.0,379.0,320.0,443.0,262.0,540.0,403.0,577.0,368.0,669.0,660.0,516.0,562.0,580.0,324.0,632.0,608.0,421.0,666.0,860.0
0,86.0,82.0,685.0,482.0,461.0,175.0,513.3666666666667,506.73333333333335,502.23333333333335,492.0,461.0,175.0,544.0,543.0,860.0,510.0,528.0,512.0,518.0,544.0,532.0,513.0,529.0,534.0,505.0,512.0,521.0,521.0,503.0,523.0,529.0,482.0,490.0,539.0,492.0,515.0,504.0,494.0,525.0,543.0,480.0,529.0,503.0,496.0,539.0,476.0,481.0,511.0,467.0,496.0,504.0,496.0,521.0,529.0,461.0,379.0,320.0,443.0,262.0,540.0,403.0,577.0,368.0,669.0,660.0,516.0,562.0,580.0,324.0,632.0,608.0,421.0,666.0,860.0,175.0
0,86.0,82.0,685.0,482.0,461.0,175.0,513.5333333333333,507.2,493.3,510.0,512.0,390.0,544.0,543.0,860.0,528.0,512.0,518.0,544.0,532.0,513.0,529.0,534.0,505.0,512.0,521.0,521.0,503.0,523.0,529.0,482.0,490.0,539.0,492.0,510.0,504.0,494.0,525.0,543.0,480.0,529.0,503.0,496.0,539.0,476.0,481.0,511.0,467.0,496.0,504.0,496.0,521.0,529.0,461.0,512.0,320.0,443.0,262.0,540.0,403.0,577.0,368.0,669.0,660.0,516.0,562.0,580.0,324.0,632.0,608.0,421.0,666.0,860.0,175.0,390.0
0,86.0,82.0,685.0,482.0,461.0,175.0,512.3666666666667,508.8666666666667,497.1,500.0,528.0,478.0,544.0,543.0,860.0,512.0,518.0,544.0,532.0,513.0,529.0,534.0,505.0,512.0,521.0,521.0,503.0,523.0,529.0,482.0,490.0,539.0,492.0,510.0,500.0,494.0,525.0,543.0,480.0,529.0,503.0,496.0,539.0,476.0,481.0,511.0,467.0,496.0,504.0,496.0,521.0,529.0,461.0,512.0,528.0,443.0,262.0,540.0,403.0,577.0,368.0,669.0,660.0,516.0,562.0,580.0,324.0,632.0,608.0,421.0,666.0,860.0,175.0,390.0,478.0
0,86.0,82.0,685.0,482.0,461.0,175.0,512.5666666666667,509.6,504.2,508.0,517.0,586.0,544.0,543.0,860.0,518.0,544.0,532.0,513.0,529.0,534.0,505.0,512.0,521.0,521.0,503.0,523.0,529.0,482.0,490.0,539.0,492.0,510.0,500.0,508.0,525.0,543.0,480.0,529.0,503.0,496.0,539.0,476.0,481.0,511.0,467.0,496.0,504.0,496.0,521.0,529.0,461.0,512.0,528.0,517.0,262.0,540.0,403.0,577.0,368.0,669.0,660.0,516.0,562.0,580.0,324.0,632.0,608.0,421.0,666.0,860.0,175.0,390.0,478.0,586.0
0,62.0,82.0,685.0,482.0,461.0,175.0,514.5,508.06666666666666,507.7,516.0,496.0,570.0,544.0,543.0,860.0,544.0,532.0,513.0,529.0,534.0,505.0,512.0,521.0,521.0,503.0,523.0,529.0,482.0,490.0,539.0,492.0,510.0,500.0,508.0,516.0,543.0,480.0,529.0,503.0,496.0,539.0,476.0,481.0,511.0,467.0,496.0,504.0,496.0,521.0,529.0,461.0,512.0,528.0,517.0,496.0,540.0,403.0,577.0,368.0,669.0,660.0,516.0,562.0,580.0,324.0,632.0,608.0,421.0,666.0,860.0,175.0,390.0,478.0,586.0,570.0
0,62.0,82.0,685.0,482.0,461.0,175.0,513.8333333333334,507.23333333333335,507.1,501.0,511.0,453.0,539.0,539.0,860.0,532.0,513.0,529.0,534.0,505.0,512.0,521.0,521.0,503.0,523.0,529.0,482.0,490.0,539.0,492.0,510.0,500.0,508.0,516.0,501.0,480.0,529.0,503.0,496.0,539.0,476.0,481.0,511.0,467.0,496.0,504.0,496.0,521.0,529.0,461.0,512.0,528.0,517.0,496.0,511.0,403.0,577.0,368.0,669.0,660.0,516.0,562.0,580.0,324.0,632.0,608.0,421.0,666.0,860.0,175.0,390.0,478.0,586.0,570.0,453.0
0,62.0,82.0,685.0,482.0,461.0,175.0,514.8666666666667,507.5,512.9,525.0,523.0,606.0,539.0,539.0,860.0,513.0,529.0,534.0,505.0,512.0,521.0,521.0,503.0,523.0,529.0,482.0,490.0,539.0,492.0,510.0,500.0,508.0,516.0,501.0,525.0,529.0,503.0,496.0,539.0,476.0,481.0,511.0,467.0,496.0,504.0,496.0,521.0,529.0,461.0,512.0,528.0,517.0,496.0,511.0,523.0,577.0,368.0,669.0,660.0,516.0,562.0,580.0,324.0,632.0,608.0,421.0,666.0,860.0,175.0,390.0,478.0,586.0,570.0,453.0,606.0
0,62.0,82.0,685.0,482.0,461.0,175.0,514.3,508.1,514.9333333333333,488.0,520.0,268.0,539.0,539.0,860.0,529.0,534.0,505.0,512.0,521.0,521.0,503.0,523.0,529.0,482.0,490.0,539.0,492.0,510.0,500.0,508.0,516.0,501.0,525.0,488.0,503.0,496.0,539.0,476.0,481.0,511.0,467.0,496.0,504.0,496.0,521.0,529.0,461.0,512.0,528.0,517.0,496.0,511.0,523.0,520.0,368.0,669.0,660.0,516.0,562.0,580.0,324.0,632.0,608.0,421.0,666.0,860.0,175.0,390.0,478.0,586.0,570.0,453.0,606.0,268.0
0,62.0,91.0,685.0,482.0,461.0,175.0,513.4333333333333,509.5,511.53333333333336,496.0,552.0,563.0,539.0,552.0,860.0,534.0,505.0,512.0,521.0,521.0,503.0,523.0,529.0,482.0,490.0,539.0,492.0,510.0,500.0,508.0,516.0,501.0,525.0,488.0,496.0,496.0,539.0,476.0,481.0,511.0,467.0,496.0,504.0,496.0,521.0,529.0,461.0,512.0,528.0,517.0,496.0,511.0,523.0,520.0,552.0,669.0,660.0,516.0,562.0,580.0,324.0,632.0,608.0,421.0,666.0,860.0,175.0,390.0,478.0,586.0,570.0,453.0,606.0,268.0,563.0
0,62.0,91.0,685.0,482.0,461.0,175.0,513.9333333333333,509.76666666666665,511.5,515.0,539.0,775.0,539.0,552.0,860.0,505.0,512.0,521.0,521.0,503.0,523.0,529.0,482.0,490.0,539.0,492.0,510.0,500.0,508.0,516.0,501.0,525.0,488.0,496.0,515.0,539.0,476.0,481.0,511.0,467.0,496.0,504.0,496.0,521.0,529.0,461.0,512.0,528.0,517.0,496.0,511.0,523.0,520.0,552.0,539.0,660.0,516.0,562.0,580.0,324.0,632.0,608.0,421.0,666.0,860.0,175.0,390.0,478.0,586.0,570.0,453.0,606.0,268.0,563.0,775.0
0,62.0,91.0,685.0,482.0,461.0,175.0,513.6666666666666,509.76666666666665,515.9333333333333,514.0,525.0,824.0,539.0,552.0,860.0,512.0,521.0,521.0,503.0,523.0,529.0,482.0,490.0,539.0,492.0,510.0,500.0,508.0,516.0,501.0,525.0,488.0,496.0,515.0,514.0,476.0,481.0,511.0,467.0,496.0,504.0,496.0,521.0,529.0,461.0,512.0,528.0,517.0,496.0,511.0,523.0,520.0,552.0,539.0,525.0,516.0,562.0,580.0,324.0,632.0,608.0,421.0,666.0,860.0,175.0,390.0,478.0,586.0,570.0,453.0,606.0,268.0,563.0,775.0,824.0
0,62.0,91.0,685.0,482.0,461.0,175.0,513.2333333333333,510.5,530.1333333333333,497.0,537.0,805.0,539.0,552.0,860.0,521.0,521.0,503.0,523.0,529.0,482.0,490.0,539.0,492.0,510.0,500.0,508.0,516.0,501.0,525.0,488.0,496.0,515.0,514.0,497.0,481.0,511.0,467.0,496.0,504.0,496.0,521.0,529.0,461.0,512.0,528.0,517.0,496.0,511.0,523.0,520.0,552.0,539.0,525.0,537.0,562.0,580.0,324.0,632.0,608.0,421.0,666.0,860.0,175.0,390.0,478.0,586.0,570.0,453.0,606.0,268.0,563.0,775.0,824.0,805.0
0,62.0,91.0,685.0,482.0,461.0,175.0,512.7666666666667,511.1,547.9333333333333,514.0,522.0,854.0,539.0,552.0,860.0,521.0,503.0,523.0,529.0,482.0,490.0,539.0,492.0,510.0,500.0,508.0,516.0,501.0,525.0,488.0,496.0,515.0,514.0,497.0,514.0,511.0,467.0,496.0,504.0,496.0,521.0,529.0,461.0,512.0,528.0,517.0,496.0,511.0,523.0,520.0,552.0,539.0,525.0,537.0,522.0,580.0,324.0,632.0,608.0,421.0,666.0,860.0,175.0,390.0,478.0,586.0,570.0,453.0,606.0,268.0,563.0,775.0,824.0,805.0,854.0
0,62.0,91.0,710.0,482.0,461.0,175.0,512.7666666666667,511.73333333333335,562.6666666666666,512.0,513.0,885.0,539.0,552.0,885.0,503.0,523.0,529.0,482.0,490.0,539.0,492.0,510.0,500.0,508.0,516.0,501.0,525.0,488.0,496.0,515.0,514.0,497.0,514.0,512.0,467.0,496.0,504.0,496.0,521.0,529.0,461.0,512.0,528.0,517.0,496.0,511.0,523.0,520.0,552.0,539.0,525.0,537.0,522.0,513.0,324.0,632.0,608.0,421.0,666.0,860.0,175.0,390.0,478.0,586.0,570.0,453.0,606.0,268.0,563.0,775.0,824.0,805.0,854.0,885.0
0,62.0,91.0,710.0,482.0,461.0,175.0,513.0666666666667,510.0,578.2,527.0,473.0,728.0,539.0,552.0,885.0,523.0,529.0,482.0,490.0,539.0,492.0,510.0,500.0,508.0,516.0,501.0,525.0,488.0,496.0,515.0,514.0,497.0,514.0,512.0,527.0,496.0,504.0,496.0,521.0,529.0,461.0,512.0,528.0,517.0,496.0,511.0,523.0,520.0,552.0,539.0,525.0,537.0,522.0,513.0,473.0,632.0,608.0,421.0,666.0,860.0,175.0,390.0,478.0,586.0,570.0,453.0,606.0,268.0,563.0,775.0,824.0,805.0,854.0,885.0,728.0
0,57.0,91.0,710.0,482.0,461.0,175.0,512.0,508.1666666666667,582.3333333333334,512.0,488.0,664.0,539.0,552.0,885.0,529.0,482.0,490.0,539.0,492.0,510.0,500.0,508.0,516.0,501.0,525.0,488.0,496.0,515.0,514.0,497.0,514.0,512.0,527.0,512.0,504.0,496.0,521.0,529.0,461.0,512.0,528.0,517.0,496.0,511.0,523.0,520.0,552.0,539.0,525.0,537.0,522.0,513.0,473.0,488.0,608.0,421.0,666.0,860.0,175.0,390.0,478.0,586.0,570.0,453.0,606.0,268.0,563.0,775.0,824.0,805.0,854.0,885.0,728.0,664.0
0,66.0,91.0,710.0,473.0,461.0,175.0,510.03333333333336,509.1666666666667,591.6666666666666,473.0,510.0,683.0,539.0,552.0,885.0,482.0,490.0,539.0,492.0,510.0,500.0,508.0,516.0,501.0,525.0,488.0,496.0,515.0,514.0,497.0,514.0,512.0,527.0,512.0,473.0,496.0,521.0,529.0,461.0,512.0,528.0,517.0,496.0,511.0,523.0,520.0,552.0,539.0,525.0,537.0,522.0,513.0,473.0,488.0,510.0,421.0,666.0,860.0,175.0,390.0,478.0,586.0,570.0,453.0,606.0,268.0,563.0,775.0,824.0,805.0,854.0,885.0,728.0,664.0,683.0
0,66.0,91.0,710.0,473.0,461.0,175.0,509.8,508.1666666666667,589.8333333333334,506.0,499.0,522.0,539.0,552.0,885.0,490.0,539.0,492.0,510.0,500.0,508.0,516.0,501.0,525.0,488.0,496.0,515.0,514.0,497.0,514.0,512.0,527.0,512.0,473.0,506.0,521.0,529.0,461.0,512.0,528.0,517.0,496.0,511.0,523.0,520.0,552.0,539.0,525.0,537.0,522.0,513.0,473.0,488.0,510.0,499.0,666.0,860.0,175.0,390.0,478.0,586.0,570.0,453.0,606.0,268.0,563.0,775.0,824.0,805.0,854.0,885.0,728.0,664.0,683.0,522.0
0,66.0,91.0,710.0,473.0,461.0,175.0,509.23333333333335,508.76666666666665,600.1666666666666,512.0,521.0,678.0,539.0,552.0,885.0,539.0,492.0,510.0,500.0,508.0,516.0,501.0,525.0,488.0,496.0,515.0,514.0,497.0,514.0,512.0,527.0,512.0,473.0,506.0,512.0,529.0,461.0,512.0,528.0,517.0,496.0,511.0,523.0,520.0,552.0,539.0,525.0,537.0,522.0,513.0,473.0,488.0,510.0,499.0,521.0,860.0,175.0,390.0,478.0,586.0,570.0,453.0,606.0,268.0,563.0,775.0,824.0,805.0,854.0,885.0,728.0,664.0,683.0,522.0,678.0
0,66.0,91.0,710.0,473.0,461.0,175.0,508.8,508.4,595.7,521.0,485.0,535.0,527.0,552.0,885.0,492.0,510.0,500.0,508.0,516.0,501.0,525.0,488.0,496.0,515.0,514.0,497.0,514.0,512.0,527.0,512.0,473.0,506.0,512.0,521.0,461.0,512.0,528.0,517.0,496.0,511.0,523.0,520.0,552.0,539.0,525.0,537.0,522.0,513.0,473.0,488.0,510.0,499.0,521.0,485.0,175.0,390.0,478.0,586.0,570.0,453.0,606.0,268.0,563.0,775.0,824.0,805.0,854.0,885.0,728.0,664.0,683.0,522.0,678.0,535.0
0,66.0,91.0,710.0,473.0,473.0,268.0,507.9,506.96666666666664,596.7,478.0,496.0,690.0,527.0,552.0,885.0,510.0,500.0,508.0,516.0,501.0,525.0,488.0,496.0,515.0,514.0,497.0,514.0,512.0,527.0,512.0,473.0,506.0,512.0,521.0,478.0,512.0,528.0,517.0,496.0,511.0,523.0,520.0,552.0,539.0,525.0,537.0,522.0,513.0,473.0,488.0,510.0,499.0,521.0,485.0,496.0,390.0,478.0,586.0,570.0,453.0,606.0,268.0,563.0,775.0,824.0,805.0,854.0,885.0,728.0,664.0,683.0,522.0,678.0,535.0,690.0
0,66.0,91.0,710.0,473.0,473.0,268.0,508.3666666666667,508.6333333333333,597.2333333333333,526.0,526.0,532.0,527.0,552.0,885.0,500.0,508.0,516.0,501.0,525.0,488.0,496.0,515.0,514.0,497.0,514.0,512.0,527.0,512.0,473.0,506.0,512.0,521.0,478.0,526.0,528.0,517.0,496.0,511.0,523.0,520.0,552.0,539.0,525.0,537.0,522.0,513.0,473.0,488.0,510.0,499.0,521.0,485.0,496.0,526.0,478.0,586.0,570.0,453.0,606.0,268.0,563.0,775.0,824.0,805.0,854.0,885.0,728.0,664.0,683.0,522.0,678.0,535.0,690.0,532.0
0,66.0,91.0,710.0,473.0,473.0,268.0,508.8333333333333,509.8333333333333,595.2,535.0,517.0,501.0,535.0,552.0,885.0,508.0,516.0,501.0,525.0,488.0,496.0,515.0,514.0,497.0,514.0,512.0,527.0,512.0,473.0,506.0,512.0,521.0,478.0,526.0,535.0,517.0,496.0,511.0,523.0,520.0,552.0,539.0,525.0,537.0,522.0,513.0,473.0,488.0,510.0,499.0,521.0,485.0,496.0,526.0,517.0,586.0,570.0,453.0,606.0,268.0,563.0,775.0,824.0,805.0,854.0,885.0,728.0,664.0,683.0,522.0,678.0,535.0,690.0,532.0,501.0
0,72.0,91.0,710.0,473.0,473.0,268.0,509.6333333333333,509.8,594.0333333333333,545.0,510.0,545.0,545.0,552.0,885.0,516.0,501.0,525.0,488.0,496.0,515.0,514.0,497.0,514.0,512.0,527.0,512.0,473.0,506.0,512.0,521.0,478.0,526.0,535.0,545.0,496.0,511.0,523.0,520.0,552.0,539.0,525.0,537.0,522.0,513.0,473.0,488.0,510.0,499.0,521.0,485.0,496.0,526.0,517.0,510.0,570.0,453.0,606.0,268.0,563.0,775.0,824.0,805.0,854.0,885.0,728.0,664.0,683.0,522.0,678.0,535.0,690.0,532.0,501.0,545.0
0,72.0,91.0,710.0,473.0,473.0,268.0,509.6666666666667,511.03333333333336,600.2333333333333,504.0,504.0,510.0,545.0,552.0,885.0,501.0,525.0,488.0,496.0,515.0,514.0,497.0,514.0,512.0,527.0,512.0,473.0,506.0,512.0,521.0,478.0,526.0,535.0,545.0,504.0,511.0,523.0,520.0,552.0,539.0,525.0,537.0,522.0,513.0,473.0,488.0,510.0,499.0,521.0,485.0,496.0,526.0,517.0,510.0,504.0,453.0,606.0,268.0,563.0,775.0,824.0,805.0,854.0,885.0,728.0,664.0,683.0,522.0,678.0,535.0,690.0,532.0,501.0,545.0,510.0
0,72.0,91.0,710.0,473.0,473.0,268.0,509.46666666666664,510.93333333333334,590.9333333333333,517.0,493.0,353.0,545.0,552.0,885.0,525.0,488.0,496.0,515.0,514.0,497.0,514.0,512.0,527.0,512.0,473.0,506.0,512.0,521.0,478.0,526.0,535.0,545.0,504.0,517.0,523.0,520.0,552.0,539.0,525.0,537.0,522.0,513.0,473.0,488.0,510.0,499.0,521.0,485.0,496.0,526.0,517.0,510.0,504.0,493.0,606.0,268.0,563.0,775.0,824.0,805.0,854.0,885.0,728.0,664.0,683.0,522.0,678.0,535.0,690.0,532.0,501.0,545.0,510.0,353.0
0,72.0,91.0,710.0,473.0,473.0,191.0,509.0,511.76666666666665,577.0333333333333,515.0,529.0,191.0,545.0,552.0,885.0,488.0,496.0,515.0,514.0,497.0,514.0,512.0,527.0,512.0,473.0,506.0,512.0,521.0,478.0,526.0,535.0,545.0,504.0,517.0,515.0,520.0,552.0,539.0,525.0,537.0,522.0,513.0,473.0,488.0,510.0,499.0,521.0,485.0,496.0,526.0,517.0,510.0,504.0,493.0,529.0,268.0,563.0,775.0,824.0,805.0,854.0,885.0,728.0,664.0,683.0,522.0,678.0,535.0,690.0,532.0,501.0,545.0,510.0,353.0,191.0
0,72.0,91.0,863.0,473.0,473.0,22.0,509.06666666666666,512.1333333333333,563.7333333333333,484.0,507.0,22.0,545.0,552.0,885.0,496.0,515.0,514.0,497.0,514.0,512.0,527.0,512.0,473.0,506.0,512.0,521.0,478.0,526.0,535.0,545.0,504.0,517.0,515.0,484.0,552.0,539.0,525.0,537.0,522.0,513.0,473.0,488.0,510.0,499.0,521.0,485.0,496.0,526.0,517.0,510.0,504.0,493.0,529.0,507.0,563.0,775.0,824.0,805.0,854.0,885.0,728.0,664.0,683.0,522.0,678.0,535.0,690.0,532.0,501.0,545.0,510.0,353.0,191.0,22.0
0,72.0,91.0,863.0,473.0,473.0,22.0,510.3333333333333,511.8333333333333,550.6333333333333,528.0,512.0,273.0,545.0,539.0,885.0,515.0,514.0,497.0,514.0,512.0,527.0,512.0,473.0,506.0,512.0,521.0,478.0,526.0,535.0,545.0,504.0,517.0,515.0,484.0,528.0,539.0,525.0,537.0,522.0,513.0,473.0,488.0,510.0,499.0,521.0,485.0,496.0,526.0,517.0,510.0,504.0,493.0,529.0,507.0,512.0,775.0,824.0,805.0,854.0,885.0,728.0,664.0,683.0,522.0,678.0,535.0,690.0,532.0,501.0,545.0,510.0,353.0,191.0,22.0,273.0
0,72.0,91.0,863.0,473.0,473.0,22.0,508.6666666666667,511.03333333333336,537.8666666666667,489.0,505.0,477.0,545.0,537.0,885.0,514.0,497.0,514.0,512.0,527.0,512.0,473.0,506.0,512.0,521.0,478.0,526.0,535.0,545.0,504.0,517.0,515.0,484.0,528.0,489.0,525.0,537.0,522.0,513.0,473.0,488.0,510.0,499.0,521.0,485.0,496.0,526.0,517.0,510.0,504.0,493.0,529.0,507.0,512.0,505.0,824.0,805.0,854.0,885.0,728.0,664.0,683.0,522.0,678.0,535.0,690.0,532.0,501.0,545.0,510.0,353.0,191.0,22.0,273.0,477.0
0,72.0,79.0,863.0,473.0,473.0,22.0,508.76666666666665,512.5,544.7333333333333,495.0,505.0,381.0,545.0,537.0,885.0,497.0,514.0,512.0,527.0,512.0,473.0,506.0,512.0,521.0,478.0,526.0,535.0,545.0,504.0,517.0,515.0,484.0,528.0,489.0,495.0,537.0,522.0,513.0,473.0,488.0,510.0,499.0,521.0,485.0,496.0,526.0,517.0,510.0,504.0,493.0,529.0,507.0,512.0,505.0,505.0,805.0,854.0,885.0,728.0,664.0,683.0,522.0,678.0,535.0,690.0,532.0,501.0,545.0,510.0,353.0,191.0,22.0,273.0,477.0,381.0
0,72.0,79.0,863.0,473.0,473.0,22.0,508.0,512.3,549.8333333333334,487.0,506.0,543.0,545.0,529.0,885.0,514.0,512.0,527.0,512.0,473.0,506.0,512.0,521.0,478.0,526.0,535.0,545.0,504.0,517.0,515.0,484.0,528.0,489.0,495.0,487.0,522.0,513.0,473.0,488.0,510.0,499.0,521.0,485.0,496.0,526.0,517.0,510.0,504.0,493.0,529.0,507.0,512.0,505.0,505.0,506.0,854.0,885.0,728.0,664.0,683.0,522.0,678.0,535.0,690.0,532.0,501.0,545.0,510.0,353.0,191.0,22.0,273.0,477.0,381.0,543.0
0,87.0,79.0,863.0,473.0,473.0,22.0,510.0,512.2333333333333,547.9333333333333,560.0,526.0,421.0,560.0,529.0,885.0,512.0,527.0,512.0,473.0,506.0,512.0,521.0,478.0,526.0,535.0,545.0,504.0,517.0,515.0,484.0,528.0,489.0,495.0,487.0,560.0,513.0,473.0,488.0,510.0,499.0,521.0,485.0,496.0,526.0,517.0,510.0,504.0,493.0,529.0,507.0,512.0,505.0,505.0,506.0,526.0,885.0,728.0,664.0,683.0,522.0,678.0,535.0,690.0,532.0,501.0,545.0,510.0,353.0,191.0,22.0,273.0,477.0,381.0,543.0,421.0
0,87.0,79.0,863.0,473.0,473.0,22.0,509.3666666666667,511.8,540.8333333333334,489.0,504.0,373.0,560.0,529.0,728.0,527.0,512.0,473.0,506.0,512.0,521.0,478.0,526.0,535.0,545.0,504.0,517.0,515.0,484.0,528.0,489.0,495.0,487.0,560.0,489.0,473.0,488.0,510.0,499.0,521.0,485.0,496.0,526.0,517.0,510.0,504.0,493.0,529.0,507.0,512.0,505.0,505.0,506.0,526.0,504.0,728.0,664.0,683.0,522.0,678.0,535.0,690.0,532.0,501.0,545.0,510.0,353.0,191.0,22.0,273.0,477.0,381.0,543.0,421.0,373.0
0,87.0,79.0,863.0,473.0,485.0,22.0,509.03333333333336,511.53333333333336,536.9,506.0,488.0,452.0,560.0,529.0,690.0,512.0,473.0,506.0,512.0,521.0,478.0,526.0,535.0,545.0,504.0,517.0,515.0,484.0,528.0,489.0,495.0,487.0,560.0,489.0,506.0,488.0,510.0,499.0,521.0,485.0,496.0,526.0,517.0,510.0,504.0,493.0,529.0,507.0,512.0,505.0,505.0,506.0,526.0,504.0,488.0,664.0,683.0,522.0,678.0,535.0,690.0,532.0,501.0,545.0,510.0,353.0,191.0,22.0,273.0,477.0,381.0,543.0,421.0,373.0,452.0
0,87.0,79.0,863.0,473.0,485.0,22.0,509.06666666666666,511.3666666666667,536.2,502.0,506.0,432.0,560.0,529.0,690.0,473.0,506.0,512.0,521.0,478.0,526.0,535.0,545.0,504.0,517.0,515.0,484.0,528.0,489.0,495.0,487.0,560.0,489.0,506.0,502.0,510.0,499.0,521.0,485.0,496.0,526.0,517.0,510.0,504.0,493.0,529.0,507.0,512.0,505.0,505.0,506.0,526.0,504.0,488.0,506.0,683.0,522.0,678.0,535.0,690.0,532.0,501.0,545.0,510.0,353.0,191.0,22.0,273.0,477.0,381.0,543.0,421.0,373.0,452.0,432.0
0,87.0,79.0,863.0,478.0,485.0,22.0,508.5,510.96666666666664,531.2666666666667,508.0,511.0,458.0,560.0,529.0,690.0,506.0,512.0,521.0,478.0,526.0,535.0,545.0,504.0,517.0,515.0,484.0,528.0,489.0,495.0,487.0,560.0,489.0,506.0,502.0,508.0,499.0,521.0,485.0,496.0,526.0,517.0,510.0,504.0,493.0,529.0,507.0,512.0,505.0,505.0,506.0,526.0,504.0,488.0,506.0,511.0,522.0,678.0,535.0,690.0,532.0,501.0,545.0,510.0,353.0,191.0,22.0,273.0,477.0,381.0,543.0,421.0,373.0,452.0,432.0,458.0
0,87.0,79.0,863.0,478.0,485.0,22.0,508.3666666666667,510.0,537.4,484.0,491.0,452.0,560.0,529.0,690.0,512.0,521.0,478.0,526.0,535.0,545.0,504.0,517.0,515.0,484.0,528.0,489.0,495.0,487.0,560.0,489.0,506.0,502.0,508.0,484.0,521.0,485.0,496.0,526.0,517.0,510.0,504.0,493.0,529.0,507.0,512.0,505.0,505.0,506.0,526.0,504.0,488.0,506.0,511.0,491.0,678.0,535.0,690.0,532.0,501.0,545.0,510.0,353.0,191.0,22.0,273.0,477.0,381.0,543.0,421.0,373.0,452.0,432.0,458.0,452.0
0,87.0,66.0,863.0,478.0,481.0,22.0,509.03333333333336,507.6333333333333,533.6,516.0,481.0,449.0,560.0,529.0,690.0,521.0,478.0,526.0,535.0,545.0,504.0,517.0,515.0,484.0,528.0,489.0,495.0,487.0,560.0,489.0,506.0,502.0,508.0,484.0,516.0,485.0,496.0,526.0,517.0,510.0,504.0,493.0,529.0,507.0,512.0,505.0,505.0,506.0,526.0,504.0,488.0,506.0,511.0,491.0,481.0,535.0,690.0,532.0,501.0,545.0,510.0,353.0,191.0,22.0,273.0,477.0,381.0,543.0,421.0,373.0,452.0,432.0,458.0,452.0,449.0
0,87.0,64.0,863.0,478.0,481.0,22.0,508.43333333333334,506.4,523.1,497.0,502.0,460.0,560.0,529.0,690.0,478.0,526.0,535.0,545.0,504.0,517.0,515.0,484.0,528.0,489.0,495.0,487.0,560.0,489.0,506.0,502.0,508.0,484.0,516.0,497.0,496.0,526.0,517.0,510.0,504.0,493.0,529.0,507.0,512.0,505.0,505.0,506.0,526.0,504.0,488.0,506.0,511.0,491.0,481.0,502.0,690.0,532.0,501.0,545.0,510.0,353.0,191.0,22.0,273.0,477.0,381.0,543.0,421.0,373.0,452.0,432.0,458.0,452.0,449.0,460.0
0,87.0,64.0,863.0,484.0,481.0,22.0,508.7,505.93333333333334,510.56666666666666,522.0,511.0,448.0,560.0,529.0,545.0,526.0,535.0,545.0,504.0,517.0,515.0,484.0,528.0,489.0,495.0,487.0,560.0,489.0,506.0,502.0,508.0,484.0,516.0,497.0,522.0,526.0,517.0,510.0,504.0,493.0,529.0,507.0,512.0,505.0,505.0,506.0,526.0,504.0,488.0,506.0,511.0,491.0,481.0,502.0,511.0,532.0,501.0,545.0,510.0,353.0,191.0,22.0,273.0,477.0,381.0,543.0,421.0,373.0,452.0,432.0,458.0,452.0,449.0,460.0,448.0
0,87.0,56.0,863.0,484.0,481.0,22.0,509.53333333333336,505.1333333333333,498.6,522.0,513.0,446.0,560.0,529.0,545.0,535.0,545.0,504.0,517.0,515.0,484.0,528.0,489.0,495.0,487.0,560.0,489.0,506.0,502.0,508.0,484.0,516.0,497.0,522.0,522.0,517.0,510.0,504.0,493.0,529.0,507.0,512.0,505.0,505.0,506.0,526.0,504.0,488.0,506.0,511.0,491.0,481.0,502.0,511.0,513.0,501.0,545.0,510.0,353.0,191.0,22.0,273.0,477.0,381.0,543.0,421.0,373.0,452.0,432.0,458.0,452.0,449.0,460.0,448.0,446.0
0,87.0,56.0,863.0,484.0,481.0,22.0,509.76666666666665,504.73333333333335,486.53333333333336,521.0,510.0,492.0,560.0,529.0,545.0,545.0,504.0,517.0,515.0,484.0,528.0,489.0,495.0,487.0,560.0,489.0,506.0,502.0,508.0,484.0,516.0,497.0,522.0,522.0,521.0,510.0,504.0,493.0,529.0,507.0,512.0,505.0,505.0,506.0,526.0,504.0,488.0,506.0,511.0,491.0,481.0,502.0,511.0,513.0,510.0,545.0,510.0,353.0,191.0,22.0,273.0,477.0,381.0,543.0,421.0,373.0,452.0,432.0,458.0,452.0,449.0,460.0,448.0,446.0,492.0
0,87.0,56.0,706.0,484.0,481.0,22.0,510.2,505.1,472.5,525.0,524.0,464.0,560.0,529.0,543.0,504.0,517.0,515.0,484.0,528.0,489.0,495.0,487.0,560.0,489.0,506.0,502.0,508.0,484.0,516.0,497.0,522.0,522.0,521.0,525.0,504.0,493.0,529.0,507.0,512.0,505.0,505.0,506.0,526.0,504.0,488.0,506.0,511.0,491.0,481.0,502.0,511.0,513.0,510.0,524.0,510.0,353.0,191.0,22.0,273.0,477.0,381.0,543.0,421.0,373.0,452.0,432.0,458.0,452.0,449.0,460.0,448.0,446.0,492.0,464.0
0,87.0,50.0,668.0,484.0,481.0,22.0,509.3333333333333,507.03333333333336,464.6333333333333,501.0,531.0,492.0,560.0,531.0,543.0,517.0,515.0,484.0,528.0,489.0,495.0,487.0,560.0,489.0,506.0,502.0,508.0,484.0,516.0,497.0,522.0,522.0,521.0,525.0,501.0,493.0,529.0,507.0,512.0,505.0,505.0,506.0,526.0,504.0,488.0,506.0,511.0,491.0,481.0,502.0,511.0,513.0,510.0,524.0,531.0,353.0,191.0,22.0,273.0,477.0,381.0,543.0,421.0,373.0,452.0,432.0,458.0,452.0,449.0,460.0,448.0,446.0,492.0,464.0,492.0
0,87.0,50.0,668.0,484.0,481.0,22.0,509.6666666666667,507.7,457.56666666666666,522.0,508.0,452.0,560.0,531.0,543.0,515.0,484.0,528.0,489.0,495.0,487.0,560.0,489.0,506.0,502.0,508.0,484.0,516.0,497.0,522.0,522.0,521.0,525.0,501.0,522.0,529.0,507.0,512.0,505.0,505.0,506.0,526.0,504.0,488.0,506.0,511.0,491.0,481.0,502.0,511.0,513.0,510.0,524.0,531.0,508.0,191.0,22.0,273.0,477.0,381.0,543.0,421.0,373.0,452.0,432.0,458.0,452.0,449.0,460.0,448.0,446.0,492.0,464.0,492.0,452.0
0,82.0,50.0,668.0,484.0,481.0,22.0,512.0333333333333,506.8,452.1666666666667,544.0,483.0,521.0,560.0,531.0,543.0,484.0,528.0,489.0,495.0,487.0,560.0,489.0,506.0,502.0,508.0,484.0,516.0,497.0,522.0,522.0,521.0,525.0,501.0,522.0,544.0,507.0,512.0,505.0,505.0,506.0,526.0,504.0,488.0,506.0,511.0,491.0,481.0,502.0,511.0,513.0,510.0,524.0,531.0,508.0,483.0,22.0,273.0,477.0,381.0,543.0,421.0,373.0,452.0,432.0,458.0,452.0,449.0,460.0,448.0,446.0,492.0,464.0,492.0,452.0,521.0
0,96.0,70.0,668.0,484.0,461.0,273.0,514.3,505.53333333333336,449.56666666666666,574.0,461.0,444.0,574.0,531.0,543.0,528.0,489.0,495.0,487.0,560.0,489.0,506.0,502.0,508.0,484.0,516.0,497.0,522.0,522.0,521.0,525.0,501.0,522.0,544.0,574.0,512.0,505.0,505.0,506.0,526.0,504.0,488.0,506.0,511.0,491.0,481.0,502.0,511.0,513.0,510.0,524.0,531.0,508.0,483.0,461.0,273.0,477.0,381.0,543.0,421.0,373.0,452.0,432.0,458.0,452.0,449.0,460.0,448.0,446.0,492.0,464.0,492.0,452.0,521.0,444.0
0,96.0,176.0,668.0,484.0,355.0,373.0,514.9,500.0,446.0,530.0,355.0,571.0,574.0,531.0,571.0,489.0,495.0,487.0,560.0,489.0,506.0,502.0,508.0,484.0,516.0,497.0,522.0,522.0,521.0,525.0,501.0,522.0,544.0,574.0,530.0,505.0,505.0,506.0,526.0,504.0,488.0,506.0,511.0,491.0,481.0,502.0,511.0,513.0,510.0,524.0,531.0,508.0,483.0,461.0,355.0,477.0,381.0,543.0,421.0,373.0,452.0,432.0,458.0,452.0,449.0,460.0,448.0,446.0,492.0,464.0,492.0,452.0,521.0,444.0,571.0
0,114.0,176.0,668.0,460.0,355.0,373.0,512.8666666666667,501.0,444.8,460.0,515.0,499.0,574.0,531.0,571.0,495.0,487.0,560.0,489.0,506.0,502.0,508.0,484.0,516.0,497.0,522.0,522.0,521.0,525.0,501.0,522.0,544.0,574.0,530.0,460.0,505.0,506.0,526.0,504.0,488.0,506.0,511.0,491.0,481.0,502.0,511.0,513.0,510.0,524.0,531.0,508.0,483.0,461.0,355.0,515.0,381.0,543.0,421.0,373.0,452.0,432.0,458.0,452.0,449.0,460.0,448.0,446.0,492.0,464.0,492.0,452.0,521.0,444.0,571.0,499.0
0,114.0,176.0,549.0,460.0,355.0,373.0,515.0666666666667,500.56666666666666,439.1666666666667,544.0,483.0,521.0,574.0,531.0,571.0,487.0,560.0,489.0,506.0,502.0,508.0,484.0,516.0,497.0,522.0,522.0,521.0,525.0,501.0,522.0,544.0,574.0,530.0,460.0,544.0,506.0,526.0,504.0,488.0,506.0,511.0,491.0,481.0,502.0,511.0,513.0,510.0,524.0,531.0,508.0,483.0,461.0,355.0,515.0,483.0,543.0,421.0,373.0,452.0,432.0,458.0,452.0,449.0,460.0,448.0,446.0,492.0,464.0,492.0,452.0,521.0,444.0,571.0,499.0,521.0
0,114.0,176.0,549.0,460.0,355.0,373.0,515.5666666666667,499.2,439.0,541.0,485.0,527.0,574.0,531.0,571.0,560.0,489.0,506.0,502.0,508.0,484.0,516.0,497.0,522.0,522.0,521.0,525.0,501.0,522.0,544.0,574.0,530.0,460.0,544.0,541.0,526.0,504.0,488.0,506.0,511.0,491.0,481.0,502.0,511.0,513.0,510.0,524.0,531.0,508.0,483.0,461.0,355.0,515.0,483.0,485.0,421.0,373.0,452.0,432.0,458.0,452.0,449.0,460.0,448.0,446.0,492.0,464.0,492.0,452.0,521.0,444.0,571.0,499.0,521.0,527.0
0,114.0,176.0,549.0,460.0,355.0,373.0,513.0666666666667,499.1333333333333,438.93333333333334,460.0,515.0,499.0,574.0,531.0,571.0,489.0,506.0,502.0,508.0,484.0,516.0,497.0,522.0,522.0,521.0,525.0,501.0,522.0,544.0,574.0,530.0,460.0,544.0,541.0,460.0,504.0,488.0,506.0,511.0,491.0,481.0,502.0,511.0,513.0,510.0,524.0,531.0,508.0,483.0,461.0,355.0,515.0,483.0,485.0,515.0,373.0,452.0,432.0,458.0,452.0,449.0,460.0,448.0,446.0,492.0,464.0,492.0,452.0,521.0,444.0,571.0,499.0,521.0,527.0,499.0
0,114.0,282.0,549.0,460.0,355.0,432.0,512.8666666666667,503.3666666666667,438.0,539.0,637.0,517.0,574.0,637.0,571.0,506.0,502.0,508.0,484.0,516.0,497.0,522.0,522.0,521.0,525.0,501.0,522.0,544.0,574.0,530.0,460.0,544.0,541.0,460.0,539.0,488.0,506.0,511.0,491.0,481.0,502.0,511.0,513.0,510.0,524.0,531.0,508.0,483.0,461.0,355.0,515.0,483.0,485.0,515.0,637.0,452.0,432.0,458.0,452.0,449.0,460.0,448.0,446.0,492.0,464.0,492.0,452.0,521.0,444.0,571.0,499.0,521.0,527.0,499.0,517.0
0,114.0,282.0,549.0,460.0,355.0,432.0,513.8666666666667,507.43333333333334,435.73333333333335,534.0,626.0,442.0,574.0,637.0,571.0,502.0,508.0,484.0,516.0,497.0,522.0,522.0,521.0,525.0,501.0,522.0,544.0,574.0,530.0,460.0,544.0,541.0,460.0,539.0,534.0,506.0,511.0,491.0,481.0,502.0,511.0,513.0,510.0,524.0,531.0,508.0,483.0,461.0,355.0,515.0,483.0,485.0,515.0,637.0,626.0,432.0,458.0,452.0,449.0,460.0,448.0,446.0,492.0,464.0,492.0,452.0,521.0,444.0,571.0,499.0,521.0,527.0,499.0,517.0,442.0
0,114.0,282.0,549.0,460.0,355.0,442.0,514.1333333333333,508.8666666666667,441.76666666666665,525.0,536.0,534.0,574.0,637.0,571.0,508.0,484.0,516.0,497.0,522.0,522.0,521.0,525.0,501.0,522.0,544.0,574.0,530.0,460.0,544.0,541.0,460.0,539.0,534.0,525.0,511.0,491.0,481.0,502.0,511.0,513.0,510.0,524.0,531.0,508.0,483.0,461.0,355.0,515.0,483.0,485.0,515.0,637.0,626.0,536.0,458.0,452.0,449.0,460.0,448.0,446.0,492.0,464.0,492.0,452.0,521.0,444.0,571.0,499.0,521.0,527.0,499.0,517.0,442.0,534.0
0,114.0,282.0,549.0,460.0,355.0,442.0,515.1666666666666,508.8,450.53333333333336,546.0,527.0,454.0,574.0,637.0,571.0,484.0,516.0,497.0,522.0,522.0,521.0,525.0,501.0,522.0,544.0,574.0,530.0,460.0,544.0,541.0,460.0,539.0,534.0,525.0,546.0,491.0,481.0,502.0,511.0,513.0,510.0,524.0,531.0,508.0,483.0,461.0,355.0,515.0,483.0,485.0,515.0,637.0,626.0,536.0,527.0,452.0,449.0,460.0,448.0,446.0,492.0,464.0,492.0,452.0,521.0,444.0,571.0,499.0,521.0,527.0,499.0,517.0,442.0,534.0,454.0
0,114.0,282.0,305.0,460.0,355.0,442.0,516.5,506.43333333333334,469.06666666666666,524.0,436.0,578.0,574.0,637.0,578.0,516.0,497.0,522.0,522.0,521.0,525.0,501.0,522.0,544.0,574.0,530.0,460.0,544.0,541.0,460.0,539.0,534.0,525.0,546.0,524.0,481.0,502.0,511.0,513.0,510.0,524.0,531.0,508.0,483.0,461.0,355.0,515.0,483.0,485.0,515.0,637.0,626.0,536.0,527.0,436.0,449.0,460.0,448.0,446.0,492.0,464.0,492.0,452.0,521.0,444.0,571.0,499.0,521.0,527.0,499.0,517.0,442.0,534.0,454.0,578.0
0,114.0,282.0,205.0,460.0,355.0,442.0,517.3333333333334,508.0,477.3,553.0,559.0,520.0,574.0,637.0,578.0,497.0,522.0,522.0,521.0,525.0,501.0,522.0,544.0,574.0,530.0,460.0,544.0,541.0,460.0,539.0,534.0,525.0,546.0,524.0,553.0,502.0,511.0,513.0,510.0,524.0,531.0,508.0,483.0,461.0,355.0,515.0,483.0,485.0,515.0,637.0,626.0,536.0,527.0,436.0,559.0,460.0,448.0,446.0,492.0,464.0,492.0,452.0,521.0,444.0,571.0,499.0,521.0,527.0,499.0,517.0,442.0,534.0,454.0,578.0,520.0
0,114.0,282.0,205.0,460.0,355.0,442.0,518.5666666666667,508.2,476.53333333333336,526.0,511.0,454.0,574.0,637.0,578.0,522.0,522.0,521.0,525.0,501.0,522.0,544.0,574.0,530.0,460.0,544.0,541.0,460.0,539.0,534.0,525.0,546.0,524.0,553.0,526.0,511.0,513.0,510.0,524.0,531.0,508.0,483.0,461.0,355.0,515.0,483.0,485.0,515.0,637.0,626.0,536.0,527.0,436.0,559.0,511.0,448.0,446.0,492.0,464.0,492.0,452.0,521.0,444.0,571.0,499.0,521.0,527.0,499.0,517.0,442.0,534.0,454.0,578.0,520.0,454.0
0,114.0,282.0,205.0,460.0,355.0,442.0,520.2666666666667,508.03333333333336,481.8,546.0,500.0,539.0,574.0,637.0,578.0,522.0,521.0,525.0,501.0,522.0,544.0,574.0,530.0,460.0,544.0,541.0,460.0,539.0,534.0,525.0,546.0,524.0,553.0,526.0,546.0,513.0,510.0,524.0,531.0,508.0,483.0,461.0,355.0,515.0,483.0,485.0,515.0,637.0,626.0,536.0,527.0,436.0,559.0,511.0,500.0,446.0,492.0,464.0,492.0,452.0,521.0,444.0,571.0,499.0,521.0,527.0,499.0,517.0,442.0,534.0,454.0,578.0,520.0,454.0,539.0
0,114.0,282.0,205.0,460.0,355.0,442.0,520.8,507.3333333333333,480.76666666666665,503.0,485.0,512.0,574.0,637.0,578.0,521.0,525.0,501.0,522.0,544.0,574.0,530.0,460.0,544.0,541.0,460.0,539.0,534.0,525.0,546.0,524.0,553.0,526.0,546.0,503.0,510.0,524.0,531.0,508.0,483.0,461.0,355.0,515.0,483.0,485.0,515.0,637.0,626.0,536.0,527.0,436.0,559.0,511.0,500.0,485.0,492.0,464.0,492.0,452.0,521.0,444.0,571.0,499.0,521.0,527.0,499.0,517.0,442.0,534.0,454.0,578.0,520.0,454.0,539.0,512.0
0,114.0,282.0,205.0,460.0,355.0,442.0,519.7333333333333,505.76666666666665,483.06666666666666,528.0,479.0,490.0,574.0,637.0,578.0,525.0,501.0,522.0,544.0,574.0,530.0,460.0,544.0,541.0,460.0,539.0,534.0,525.0,546.0,524.0,553.0,526.0,546.0,503.0,528.0,524.0,531.0,508.0,483.0,461.0,355.0,515.0,483.0,485.0,515.0,637.0,626.0,536.0,527.0,436.0,559.0,511.0,500.0,485.0,479.0,464.0,492.0,452.0,521.0,444.0,571.0,499.0,521.0,527.0,499.0,517.0,442.0,534.0,454.0,578.0,520.0,454.0,539.0,512.0,490.0
0,114.0,282.0,146.0,460.0,355.0,442.0,521.1,506.3,488.4,530.0,520.0,533.0,574.0,637.0,578.0,501.0,522.0,544.0,574.0,530.0,460.0,544.0,541.0,460.0,539.0,534.0,525.0,546.0,524.0,553.0,526.0,546.0,503.0,528.0,530.0,531.0,508.0,483.0,461.0,355.0,515.0,483.0,485.0,515.0,637.0,626.0,536.0,527.0,436.0,559.0,511.0,500.0,485.0,479.0,520.0,492.0,452.0,521.0,444.0,571.0,499.0,521.0,527.0,499.0,517.0,442.0,534.0,454.0,578.0,520.0,454.0,539.0,512.0,490.0,533.0
0,114.0,282.0,146.0,460.0,355.0,442.0,521.5,508.2,489.3666666666667,518.0,545.0,481.0,574.0,637.0,578.0,522.0,544.0,574.0,530.0,460.0,544.0,541.0,460.0,539.0,534.0,525.0,546.0,524.0,553.0,526.0,546.0,503.0,528.0,530.0,518.0,508.0,483.0,461.0,355.0,515.0,483.0,485.0,515.0,637.0,626.0,536.0,527.0,436.0,559.0,511.0,500.0,485.0,479.0,520.0,545.0,452.0,521.0,444.0,571.0,499.0,521.0,527.0,499.0,517.0,442.0,534.0,454.0,578.0,520.0,454.0,539.0,512.0,490.0,533.0,481.0
0,114.0,282.0,136.0,460.0,355.0,442.0,523.0666666666667,508.3666666666667,491.3666666666667,549.0,511.0,492.0,574.0,637.0,578.0,544.0,574.0,530.0,460.0,544.0,541.0,460.0,539.0,534.0,525.0,546.0,524.0,553.0,526.0,546.0,503.0,528.0,530.0,518.0,549.0,483.0,461.0,355.0,515.0,483.0,485.0,515.0,637.0,626.0,536.0,527.0,436.0,559.0,511.0,500.0,485.0,479.0,520.0,545.0,511.0,521.0,444.0,571.0,499.0,521.0,527.0,499.0,517.0,442.0,534.0,454.0,578.0,520.0,454.0,539.0,512.0,490.0,533.0,481.0,492.0
0,114.0,282.0,136.0,460.0,355.0,442.0,524.5666666666667,506.6,493.8,553.0,458.0,531.0,574.0,637.0,578.0,574.0,530.0,460.0,544.0,541.0,460.0,539.0,534.0,525.0,546.0,524.0,553.0,526.0,546.0,503.0,528.0,530.0,518.0,549.0,553.0,461.0,355.0,515.0,483.0,485.0,515.0,637.0,626.0,536.0,527.0,436.0,559.0,511.0,500.0,485.0,479.0,520.0,545.0,511.0,458.0,444.0,571.0,499.0,521.0,527.0,499.0,517.0,442.0,534.0,454.0,578.0,520.0,454.0,539.0,512.0,490.0,533.0,481.0,492.0,531.0
0,114.0,282.0,136.0,460.0,355.0,442.0,525.9,506.23333333333335,493.6,524.0,480.0,446.0,553.0,637.0,578.0,530.0,460.0,544.0,541.0,460.0,539.0,534.0,525.0,546.0,524.0,553.0,526.0,546.0,503.0,528.0,530.0,518.0,549.0,553.0,524.0,355.0,515.0,483.0,485.0,515.0,637.0,626.0,536.0,527.0,436.0,559.0,511.0,500.0,485.0,479.0,520.0,545.0,511.0,458.0,480.0,571.0,499.0,521.0,527.0,499.0,517.0,442.0,534.0,454.0,578.0,520.0,454.0,539.0,512.0,490.0,533.0,481.0,492.0,531.0,446.0
0,114.0,282.0,136.0,460.0,436.0,442.0,526.2666666666667,508.43333333333334,495.3333333333333,527.0,547.0,501.0,553.0,637.0,578.0,460.0,544.0,541.0,460.0,539.0,534.0,525.0,546.0,524.0,553.0,526.0,546.0,503.0,528.0,530.0,518.0,549.0,553.0,524.0,527.0,515.0,483.0,485.0,515.0,637.0,626.0,536.0,527.0,436.0,559.0,511.0,500.0,485.0,479.0,520.0,545.0,511.0,458.0,480.0,547.0,499.0,521.0,527.0,499.0,517.0,442.0,534.0,454.0,578.0,520.0,454.0,539.0,512.0,490.0,533.0,481.0,492.0,531.0,446.0,501.0
0,114.0,282.0,136.0,460.0,436.0,442.0,528.6666666666666,510.0,497.23333333333335,569.0,549.0,517.0,569.0,637.0,578.0,544.0,541.0,460.0,539.0,534.0,525.0,546.0,524.0,553.0,526.0,546.0,503.0,528.0,530.0,518.0,549.0,553.0,524.0,527.0,569.0,483.0,485.0,515.0,637.0,626.0,536.0,527.0,436.0,559.0,511.0,500.0,485.0,479.0,520.0,545.0,511.0,458.0,480.0,547.0,549.0,521.0,527.0,499.0,517.0,442.0,534.0,454.0,578.0,520.0,454.0,539.0,512.0,490.0,533.0,481.0,492.0,531.0,446.0,501.0,517.0
0,114.0,282.0,136.0,460.0,436.0,442.0,528.1666666666666,509.9,497.93333333333334,507.0,508.0,469.0,569.0,637.0,578.0,541.0,460.0,539.0,534.0,525.0,546.0,524.0,553.0,526.0,546.0,503.0,528.0,530.0,518.0,549.0,553.0,524.0,527.0,569.0,507.0,485.0,515.0,637.0,626.0,536.0,527.0,436.0,559.0,511.0,500.0,485.0,479.0,520.0,545.0,511.0,458.0,480.0,547.0,549.0,508.0,527.0,499.0,517.0,442.0,534.0,454.0,578.0,520.0,454.0,539.0,512.0,490.0,533.0,481.0,492.0,531.0,446.0,501.0,517.0,469.0
0,114.0,282.0,136.0,460.0,436.0,442.0,527.0666666666667,510.4,500.26666666666665,489.0,528.0,516.0,569.0,637.0,578.0,460.0,539.0,534.0,525.0,546.0,524.0,553.0,526.0,546.0,503.0,528.0,530.0,518.0,549.0,553.0,524.0,527.0,569.0,507.0,489.0,515.0,637.0,626.0,536.0,527.0,436.0,559.0,511.0,500.0,485.0,479.0,520.0,545.0,511.0,458.0,480.0,547.0,549.0,508.0,528.0,499.0,517.0,442.0,534.0,454.0,578.0,520.0,454.0,539.0,512.0,490.0,533.0,481.0,492.0,531.0,446.0,501.0,517.0,469.0,516.0
0,116.0,282.0,136.0,458.0,436.0,442.0,524.9666666666667,512.2333333333333,500.46666666666664,458.0,565.0,498.0,569.0,637.0,578.0,539.0,534.0,525.0,546.0,524.0,553.0,526.0,546.0,503.0,528.0,530.0,518.0,549.0,553.0,524.0,527.0,569.0,507.0,489.0,458.0,637.0,626.0,536.0,527.0,436.0,559.0,511.0,500.0,485.0,479.0,520.0,545.0,511.0,458.0,480.0,547.0,549.0,508.0,528.0,565.0,517.0,442.0,534.0,454.0,578.0,520.0,454.0,539.0,512.0,490.0,533.0,481.0,492.0,531.0,446.0,501.0,517.0,469.0,516.0,498.0
0,118.0,282.0,136.0,458.0,436.0,442.0,526.6666666666666,511.26666666666665,502.6,576.0,495.0,528.0,576.0,626.0,578.0,534.0,525.0,546.0,524.0,553.0,526.0,546.0,503.0,528.0,530.0,518.0,549.0,553.0,524.0,527.0,569.0,507.0,489.0,458.0,576.0,626.0,536.0,527.0,436.0,559.0,511.0,500.0,485.0,479.0,520.0,545.0,511.0,458.0,480.0,547.0,549.0,508.0,528.0,565.0,495.0,442.0,534.0,454.0,578.0,520.0,454.0,539.0,512.0,490.0,533.0,481.0,492.0,531.0,446.0,501.0,517.0,469.0,516.0,498.0,528.0
0,118.0,282.0,136.0,458.0,436.0,446.0,527.1666666666666,511.7,502.23333333333335,516.0,544.0,481.0,576.0,565.0,578.0,525.0,546.0,524.0,553.0,526.0,546.0,503.0,528.0,530.0,518.0,549.0,553.0,524.0,527.0,569.0,507.0,489.0,458.0,576.0,516.0,536.0,527.0,436.0,559.0,511.0,500.0,485.0,479.0,520.0,545.0,511.0,458.0,480.0,547.0,549.0,508.0,528.0,565.0,495.0,544.0,534.0,454.0,578.0,520.0,454.0,539.0,512.0,490.0,533.0,481.0,492.0,531.0,446.0,501.0,517.0,469.0,516.0,498.0,528.0,481.0
0,118.0,282.0,136.0,458.0,436.0,446.0,526.0333333333333,512.7,503.8333333333333,488.0,538.0,500.0,576.0,565.0,578.0,546.0,524.0,553.0,526.0,546.0,503.0,528.0,530.0,518.0,549.0,553.0,524.0,527.0,569.0,507.0,489.0,458.0,576.0,516.0,488.0,527.0,436.0,559.0,511.0,500.0,485.0,479.0,520.0,545.0,511.0,458.0,480.0,547.0,549.0,508.0,528.0,565.0,495.0,544.0,538.0,454.0,578.0,520.0,454.0,539.0,512.0,490.0,533.0,481.0,492.0,531.0,446.0,501.0,517.0,469.0,516.0,498.0,528.0,481.0,500.0
0,118.0,282.0,136.0,458.0,436.0,446.0,525.2333333333333,513.3,504.06666666666666,520.0,501.0,528.0,576.0,565.0,578.0,524.0,553.0,526.0,546.0,503.0,528.0,530.0,518.0,549.0,553.0,524.0,527.0,569.0,507.0,489.0,458.0,576.0,516.0,488.0,520.0,436.0,559.0,511.0,500.0,485.0,479.0,520.0,545.0,511.0,458.0,480.0,547.0,549.0,508.0,528.0,565.0,495.0,544.0,538.0,501.0,578.0,520.0,454.0,539.0,512.0,490.0,533.0,481.0,492.0,531.0,446.0,501.0,517.0,469.0,516.0,498.0,528.0,481.0,500.0,528.0
0,118.0,282.0,136.0,458.0,458.0,446.0,523.3333333333334,514.9333333333333,506.06666666666666,517.0,510.0,504.0,576.0,565.0,539.0,553.0,526.0,546.0,503.0,528.0,530.0,518.0,549.0,553.0,524.0,527.0,569.0,507.0,489.0,458.0,576.0,516.0,488.0,520.0,517.0,559.0,511.0,500.0,485.0,479.0,520.0,545.0,511.0,458.0,480.0,547.0,549.0,508.0,528.0,565.0,495.0,544.0,538.0,501.0,510.0,520.0,454.0,539.0,512.0,490.0,533.0,481.0,492.0,531.0,446.0,501.0,517.0,469.0,516.0,498.0,528.0,481.0,500.0,528.0,504.0
0,118.0,201.0,136.0,458.0,458.0,446.0,522.7666666666667,519.6333333333333,504.23333333333335,513.0,496.0,516.0,576.0,565.0,539.0,526.0,546.0,503.0,528.0,530.0,518.0,549.0,553.0,524.0,527.0,569.0,507.0,489.0,458.0,576.0,516.0,488.0,520.0,517.0,513.0,511.0,500.0,485.0,479.0,520.0,545.0,511.0,458.0,480.0,547.0,549.0,508.0,528.0,565.0,495.0,544.0,538.0,501.0,510.0,496.0,454.0,539.0,512.0,490.0,533.0,481.0,492.0,531.0,446.0,501.0,517.0,469.0,516.0,498.0,528.0,481.0,500.0,528.0,504.0,516.0
0,118.0,201.0,136.0,458.0,454.0,446.0,524.7666666666667,517.6,504.6,520.0,454.0,510.0,576.0,565.0,539.0,546.0,503.0,528.0,530.0,518.0,549.0,553.0,524.0,527.0,569.0,507.0,489.0,458.0,576.0,516.0,488.0,520.0,517.0,513.0,520.0,500.0,485.0,479.0,520.0,545.0,511.0,458.0,480.0,547.0,549.0,508.0,528.0,565.0,495.0,544.0,538.0,501.0,510.0,496.0,454.0,539.0,512.0,490.0,533.0,481.0,492.0,531.0,446.0,501.0,517.0,469.0,516.0,498.0,528.0,481.0,500.0,528.0,504.0,516.0,510.0
0,118.0,201.0,136.0,458.0,454.0,446.0,524.5333333333333,519.1,505.56666666666666,537.0,528.0,550.0,576.0,565.0,550.0,503.0,528.0,530.0,518.0,549.0,553.0,524.0,527.0,569.0,507.0,489.0,458.0,576.0,516.0,488.0,520.0,517.0,513.0,520.0,537.0,485.0,479.0,520.0,545.0,511.0,458.0,480.0,547.0,549.0,508.0,528.0,565.0,495.0,544.0,538.0,501.0,510.0,496.0,454.0,528.0,512.0,490.0,533.0,481.0,492.0,531.0,446.0,501.0,517.0,469.0,516.0,498.0,528.0,481.0,500.0,528.0,504.0,516.0,510.0,550.0
0,118.0,201.0,136.0,458.0,454.0,446.0,524.2,522.3333333333334,504.53333333333336,531.0,582.0,496.0,576.0,582.0,550.0,528.0,530.0,518.0,549.0,553.0,524.0,527.0,569.0,507.0,489.0,458.0,576.0,516.0,488.0,520.0,517.0,513.0,520.0,537.0,531.0,479.0,520.0,545.0,511.0,458.0,480.0,547.0,549.0,508.0,528.0,565.0,495.0,544.0,538.0,501.0,510.0,496.0,454.0,528.0,582.0,490.0,533.0,481.0,492.0,531.0,446.0,501.0,517.0,469.0,516.0,498.0,528.0,481.0,500.0,528.0,504.0,516.0,510.0,550.0,496.0
0,118.0,201.0,136.0,458.0,448.0,446.0,524.5333333333333,520.1,505.76666666666665,470.0,448.0,536.0,576.0,582.0,550.0,530.0,518.0,549.0,553.0,524.0,527.0,569.0,507.0,489.0,458.0,576.0,516.0,488.0,520.0,517.0,513.0,520.0,537.0,531.0,470.0,520.0,545.0,511.0,458.0,480.0,547.0,549.0,508.0,528.0,565.0,495.0,544.0,538.0,501.0,510.0,496.0,454.0,528.0,582.0,448.0,533.0,481.0,492.0,531.0,446.0,501.0,517.0,469.0,516.0,498.0,528.0,481.0,500.0,528.0,504.0,516.0,510.0,550.0,496.0,536.0
0,118.0,190.0,136.0,458.0,448.0,446.0,523.3666666666667,515.5,504.43333333333334,504.0,499.0,477.0,576.0,582.0,550.0,518.0,549.0,553.0,524.0,527.0,569.0,507.0,489.0,458.0,576.0,516.0,488.0,520.0,517.0,513.0,520.0,537.0,531.0,470.0,504.0,545.0,511.0,458.0,480.0,547.0,549.0,508.0,528.0,565.0,495.0,544.0,538.0,501.0,510.0,496.0,454.0,528.0,582.0,448.0,499.0,481.0,492.0,531.0,446.0,501.0,517.0,469.0,516.0,498.0,528.0,481.0,500.0,528.0,504.0,516.0,510.0,550.0,496.0,536.0,477.0
0,118.0,182.0,132.0,458.0,400.0,446.0,521.9,507.96666666666664,508.3666666666667,490.0,400.0,560.0,576.0,582.0,560.0,549.0,553.0,524.0,527.0,569.0,507.0,489.0,458.0,576.0,516.0,488.0,520.0,517.0,513.0,520.0,537.0,531.0,470.0,504.0,490.0,511.0,458.0,480.0,547.0,549.0,508.0,528.0,565.0,495.0,544.0,538.0,501.0,510.0,496.0,454.0,528.0,582.0,448.0,499.0,400.0,492.0,531.0,446.0,501.0,517.0,469.0,516.0,498.0,528.0,481.0,500.0,528.0,504.0,516.0,510.0,550.0,496.0,536.0,477.0,560.0
0,118.0,182.0,132.0,458.0,400.0,446.0,520.6,505.4,506.8,486.0,459.0,487.0,576.0,582.0,560.0,553.0,524.0,527.0,569.0,507.0,489.0,458.0,576.0,516.0,488.0,520.0,517.0,513.0,520.0,537.0,531.0,470.0,504.0,490.0,486.0,458.0,480.0,547.0,549.0,508.0,528.0,565.0,495.0,544.0,538.0,501.0,510.0,496.0,454.0,528.0,582.0,448.0,499.0,400.0,459.0,531.0,446.0,501.0,517.0,469.0,516.0,498.0,528.0,481.0,500.0,528.0,504.0,516.0,510.0,550.0,496.0,536.0,477.0,560.0,487.0
0,118.0,182.0,132.0,458.0,400.0,446.0,519.8333333333334,505.56666666666666,508.8666666666667,523.0,532.0,516.0,576.0,582.0,560.0,524.0,527.0,569.0,507.0,489.0,458.0,576.0,516.0,488.0,520.0,517.0,513.0,520.0,537.0,531.0,470.0,504.0,490.0,486.0,523.0,480.0,547.0,549.0,508.0,528.0,565.0,495.0,544.0,538.0,501.0,510.0,496.0,454.0,528.0,582.0,448.0,499.0,400.0,459.0,532.0,446.0,501.0,517.0,469.0,516.0,498.0,528.0,481.0,500.0,528.0,504.0,516.0,510.0,550.0,496.0,536.0,477.0,560.0,487.0,516.0
0,118.0,182.0,114.0,458.0,400.0,469.0,520.5666666666667,507.1,505.8,546.0,482.0,486.0,576.0,582.0,560.0,527.0,569.0,507.0,489.0,458.0,576.0,516.0,488.0,520.0,517.0,513.0,520.0,537.0,531.0,470.0,504.0,490.0,486.0,523.0,546.0,547.0,549.0,508.0,528.0,565.0,495.0,544.0,538.0,501.0,510.0,496.0,454.0,528.0,582.0,448.0,499.0,400.0,459.0,532.0,482.0,501.0,517.0,469.0,516.0,498.0,528.0,481.0,500.0,528.0,504.0,516.0,510.0,550.0,496.0,536.0,477.0,560.0,487.0,516.0,486.0
0,118.0,182.0,114.0,458.0,400.0,469.0,520.4333333333333,505.26666666666665,504.2,549.0,504.0,472.0,576.0,582.0,560.0,569.0,507.0,489.0,458.0,576.0,516.0,488.0,520.0,517.0,513.0,520.0,537.0,531.0,470.0,504.0,490.0,486.0,523.0,546.0,549.0,549.0,508.0,528.0,565.0,495.0,544.0,538.0,501.0,510.0,496.0,454.0,528.0,582.0,448.0,499.0,400.0,459.0,532.0,482.0,504.0,517.0,469.0,516.0,498.0,528.0,481.0,500.0,528.0,504.0,516.0,510.0,550.0,496.0,536.0,477.0,560.0,487.0,516.0,486.0,472.0
0,118.0,182.0,114.0,458.0,400.0,469.0,520.2,504.06666666666666,506.26666666666665,519.0,475.0,516.0,576.0,582.0,560.0,507.0,489.0,458.0,576.0,516.0,488.0,520.0,517.0,513.0,520.0,537.0,531.0,470.0,504.0,490.0,486.0,523.0,546.0,549.0,519.0,508.0,528.0,565.0,495.0,544.0,538.0,501.0,510.0,496.0,454.0,528.0,582.0,448.0,499.0,400.0,459.0,532.0,482.0,504.0,475.0,469.0,516.0,498.0,528.0,481.0,500.0,528.0,504.0,516.0,510.0,550.0,496.0,536.0,477.0,560.0,487.0,516.0,486.0,472.0,516.0
0,118.0,182.0,114.0,458.0,400.0,472.0,519.5,504.93333333333334,504.3666666666667,525.0,526.0,482.0,576.0,582.0,560.0,489.0,458.0,576.0,516.0,488.0,520.0,517.0,513.0,520.0,537.0,531.0,470.0,504.0,490.0,486.0,523.0,546.0,549.0,519.0,525.0,528.0,565.0,495.0,544.0,538.0,501.0,510.0,496.0,454.0,528.0,582.0,448.0,499.0,400.0,459.0,532.0,482.0,504.0,475.0,526.0,516.0,498.0,528.0,481.0,500.0,528.0,504.0,516.0,510.0,550.0,496.0,536.0,477.0,560.0,487.0,516.0,486.0,472.0,516.0,482.0
0,118.0,182.0,114.0,458.0,400.0,472.0,519.7333333333333,505.6,504.6333333333333,510.0,505.0,520.0,576.0,582.0,560.0,458.0,576.0,516.0,488.0,520.0,517.0,513.0,520.0,537.0,531.0,470.0,504.0,490.0,486.0,523.0,546.0,549.0,519.0,525.0,510.0,565.0,495.0,544.0,538.0,501.0,510.0,496.0,454.0,528.0,582.0,448.0,499.0,400.0,459.0,532.0,482.0,504.0,475.0,526.0,505.0,498.0,528.0,481.0,500.0,528.0,504.0,516.0,510.0,550.0,496.0,536.0,477.0,560.0,487.0,516.0,486.0,472.0,516.0,482.0,520.0
0,118.0,182.0,114.0,470.0,400.0,472.0,519.5333333333333,506.93333333333334,505.1666666666667,522.0,519.0,506.0,576.0,582.0,560.0,576.0,516.0,488.0,520.0,517.0,513.0,520.0,537.0,531.0,470.0,504.0,490.0,486.0,523.0,546.0,549.0,519.0,525.0,510.0,522.0,495.0,544.0,538.0,501.0,510.0,496.0,454.0,528.0,582.0,448.0,499.0,400.0,459.0,532.0,482.0,504.0,475.0,526.0,505.0,519.0,528.0,481.0,500.0,528.0,504.0,516.0,510.0,550.0,496.0,536.0,477.0,560.0,487.0,516.0,486.0,472.0,516.0,482.0,520.0,506.0
0,118.0,182.0,114.0,470.0,400.0,472.0,519.4,505.9,504.8,526.0,489.0,522.0,549.0,582.0,560.0,516.0,488.0,520.0,517.0,513.0,520.0,537.0,531.0,470.0,504.0,490.0,486.0,523.0,546.0,549.0,519.0,525.0,510.0,522.0,526.0,544.0,538.0,501.0,510.0,496.0,454.0,528.0,582.0,448.0,499.0,400.0,459.0,532.0,482.0,504.0,475.0,526.0,505.0,519.0,489.0,481.0,500.0,528.0,504.0,516.0,510.0,550.0,496.0,536.0,477.0,560.0,487.0,516.0,486.0,472.0,516.0,482.0,520.0,506.0,522.0
0,118.0,182.0,114.0,470.0,400.0,472.0,520.0666666666667,506.4,506.0,538.0,560.0,517.0,549.0,582.0,560.0,488.0,520.0,517.0,513.0,520.0,537.0,531.0,470.0,504.0,490.0,486.0,523.0,546.0,549.0,519.0,525.0,510.0,522.0,526.0,538.0,538.0,501.0,510.0,496.0,454.0,528.0,582.0,448.0,499.0,400.0,459.0,532.0,482.0,504.0,475.0,526.0,505.0,519.0,489.0,560.0,500.0,528.0,504.0,516.0,510.0,550.0,496.0,536.0,477.0,560.0,487.0,516.0,486.0,472.0,516.0,482.0,520.0,506.0,522.0,517.0
0,118.0,182.0,114.0,470.0,400.0,472.0,520.2,507.6333333333333,506.46666666666664,553.0,548.0,506.0,553.0,582.0,560.0,520.0,517.0,513.0,520.0,537.0,531.0,470.0,504.0,490.0,486.0,523.0,546.0,549.0,519.0,525.0,510.0,522.0,526.0,538.0,553.0,501.0,510.0,496.0,454.0,528.0,582.0,448.0,499.0,400.0,459.0,532.0,482.0,504.0,475.0,526.0,505.0,519.0,489.0,560.0,548.0,528.0,504.0,516.0,510.0,550.0,496.0,536.0,477.0,560.0,487.0,516.0,486.0,472.0,516.0,482.0,520.0,506.0,522.0,517.0,506.0
0,118.0,182.0,114.0,470.0,400.0,472.0,518.7333333333333,509.3666666666667,505.26666666666665,509.0,510.0,495.0,553.0,582.0,560.0,517.0,513.0,520.0,537.0,531.0,470.0,504.0,490.0,486.0,523.0,546.0,549.0,519.0,525.0,510.0,522.0,526.0,538.0,553.0,509.0,510.0,496.0,454.0,528.0,582.0,448.0,499.0,400.0,459.0,532.0,482.0,504.0,475.0,526.0,505.0,519.0,489.0,560.0,548.0,510.0,504.0,516.0,510.0,550.0,496.0,536.0,477.0,560.0,487.0,516.0,486.0,472.0,516.0,482.0,520.0,506.0,522.0,517.0,506.0,495.0
0,118.0,182.0,91.0,470.0,400.0,472.0,518.6333333333333,511.1,508.26666666666665,521.0,532.0,536.0,553.0,582.0,560.0,513.0,520.0,537.0,531.0,470.0,504.0,490.0,486.0,523.0,546.0,549.0,519.0,525.0,510.0,522.0,526.0,538.0,553.0,509.0,521.0,496.0,454.0,528.0,582.0,448.0,499.0,400.0,459.0,532.0,482.0,504.0,475.0,526.0,505.0,519.0,489.0,560.0,548.0,510.0,532.0,516.0,510.0,550.0,496.0,536.0,477.0,560.0,487.0,516.0,486.0,472.0,516.0,482.0,520.0,506.0,522.0,517.0,506.0,495.0,536.0
0,118.0,182.0,91.0,470.0,400.0,472.0,517.1,510.43333333333334,508.1,481.0,527.0,496.0,553.0,582.0,560.0,520.0,537.0,531.0,470.0,504.0,490.0,486.0,523.0,546.0,549.0,519.0,525.0,510.0,522.0,526.0,538.0,553.0,509.0,521.0,481.0,454.0,528.0,582.0,448.0,499.0,400.0,459.0,532.0,482.0,504.0,475.0,526.0,505.0,519.0,489.0,560.0,548.0,510.0,532.0,527.0,510.0,550.0,496.0,536.0,477.0,560.0,487.0,516.0,486.0,472.0,516.0,482.0,520.0,506.0,522.0,517.0,506.0,495.0,536.0,496.0
0,118.0,182.0,91.0,470.0,400.0,472.0,516.0,508.43333333333334,508.7,536.0,489.0,535.0,553.0,582.0,560.0,537.0,531.0,470.0,504.0,490.0,486.0,523.0,546.0,549.0,519.0,525.0,510.0,522.0,526.0,538.0,553.0,509.0,521.0,481.0,536.0,528.0,582.0,448.0,499.0,400.0,459.0,532.0,482.0,504.0,475.0,526.0,505.0,519.0,489.0,560.0,548.0,510.0,532.0,527.0,489.0,550.0,496.0,536.0,477.0,560.0,487.0,516.0,486.0,472.0,516.0,482.0,520.0,506.0,522.0,517.0,506.0,495.0,536.0,496.0,535.0
0,118.0,182.0,88.0,470.0,400.0,472.0,515.2333333333333,507.23333333333335,511.73333333333335,484.0,472.0,560.0,553.0,582.0,560.0,531.0,470.0,504.0,490.0,486.0,523.0,546.0,549.0,519.0,525.0,510.0,522.0,526.0,538.0,553.0,509.0,521.0,481.0,536.0,484.0,582.0,448.0,499.0,400.0,459.0,532.0,482.0,504.0,475.0,526.0,505.0,519.0,489.0,560.0,548.0,510.0,532.0,527.0,489.0,472.0,496.0,536.0,477.0,560.0,487.0,516.0,486.0,472.0,516.0,482.0,520.0,506.0,522.0,517.0,506.0,495.0,536.0,496.0,535.0,560.0
0,118.0,182.0,88.0,470.0,400.0,472.0,516.1,506.1,512.0666666666667,515.0,494.0,526.0,553.0,560.0,560.0,470.0,504.0,490.0,486.0,523.0,546.0,549.0,519.0,525.0,510.0,522.0,526.0,538.0,553.0,509.0,521.0,481.0,536.0,484.0,515.0,448.0,499.0,400.0,459.0,532.0,482.0,504.0,475.0,526.0,505.0,519.0,489.0,560.0,548.0,510.0,532.0,527.0,489.0,472.0,494.0,536.0,477.0,560.0,487.0,516.0,486.0,472.0,516.0,482.0,520.0,506.0,522.0,517.0,506.0,495.0,536.0,496.0,535.0,560.0,526.0
0,106.0,182.0,88.0,481.0,400.0,472.0,517.7,504.6666666666667,513.3333333333334,506.0,522.0,536.0,553.0,560.0,560.0,504.0,490.0,486.0,523.0,546.0,549.0,519.0,525.0,510.0,522.0,526.0,538.0,553.0,509.0,521.0,481.0,536.0,484.0,515.0,506.0,499.0,400.0,459.0,532.0,482.0,504.0,475.0,526.0,505.0,519.0,489.0,560.0,548.0,510.0,532.0,527.0,489.0,472.0,494.0,522.0,477.0,560.0,487.0,516.0,486.0,472.0,516.0,482.0,520.0,506.0,522.0,517.0,506.0,495.0,536.0,496.0,535.0,560.0,526.0,536.0
0,83.0,182.0,88.0,481.0,400.0,472.0,516.3666666666667,504.8333333333333,513.0666666666667,536.0,500.0,520.0,553.0,560.0,560.0,490.0,486.0,523.0,546.0,549.0,519.0,525.0,510.0,522.0,526.0,538.0,553.0,509.0,521.0,481.0,536.0,484.0,515.0,506.0,536.0,400.0,459.0,532.0,482.0,504.0,475.0,526.0,505.0,519.0,489.0,560.0,548.0,510.0,532.0,527.0,489.0,472.0,494.0,522.0,500.0,560.0,487.0,516.0,486.0,472.0,516.0,482.0,520.0,506.0,522.0,517.0,506.0,495.0,536.0,496.0,535.0,560.0,526.0,536.0,520.0
0,83.0,182.0,88.0,481.0,459.0,472.0,516.4666666666667,503.3,513.7666666666667,519.0,498.0,502.0,553.0,560.0,560.0,486.0,523.0,546.0,549.0,519.0,525.0,510.0,522.0,526.0,538.0,553.0,509.0,521.0,481.0,536.0,484.0,515.0,506.0,536.0,519.0,459.0,532.0,482.0,504.0,475.0,526.0,505.0,519.0,489.0,560.0,548.0,510.0,532.0,527.0,489.0,472.0,494.0,522.0,500.0,498.0,487.0,516.0,486.0,472.0,516.0,482.0,520.0,506.0,522.0,517.0,506.0,495.0,536.0,496.0,535.0,560.0,526.0,536.0,520.0,502.0
0,83.0,182.0,88.0,481.0,472.0,472.0,517.5666666666667,501.8666666666667,514.5333333333333,521.0,495.0,523.0,553.0,560.0,560.0,523.0,546.0,549.0,519.0,525.0,510.0,522.0,526.0,538.0,553.0,509.0,521.0,481.0,536.0,484.0,515.0,506.0,536.0,519.0,521.0,532.0,482.0,504.0,475.0,526.0,505.0,519.0,489.0,560.0,548.0,510.0,532.0,527.0,489.0,472.0,494.0,522.0,500.0,498.0,495.0,516.0,486.0,472.0,516.0,482.0,520.0,506.0,522.0,517.0,506.0,495.0,536.0,496.0,535.0,560.0,526.0,536.0,520.0,502.0,523.0
0,83.0,182.0,88.0,481.0,472.0,472.0,517.5666666666667,502.8333333333333,513.4666666666667,520.0,530.0,496.0,553.0,560.0,560.0,546.0,549.0,519.0,525.0,510.0,522.0,526.0,538.0,553.0,509.0,521.0,481.0,536.0,484.0,515.0,506.0,536.0,519.0,521.0,520.0,482.0,504.0,475.0,526.0,505.0,519.0,489.0,560.0,548.0,510.0,532.0,527.0,489.0,472.0,494.0,522.0,500.0,498.0,495.0,530.0,486.0,472.0,516.0,482.0,520.0,506.0,522.0,517.0,506.0,495.0,536.0,496.0,535.0,560.0,526.0,536.0,520.0,502.0,523.0,496.0
0,83.0,182.0,88.0,481.0,472.0,472.0,516.5666666666667,502.96666666666664,514.6,487.0,514.0,538.0,553.0,560.0,560.0,549.0,519.0,525.0,510.0,522.0,526.0,538.0,553.0,509.0,521.0,481.0,536.0,484.0,515.0,506.0,536.0,519.0,521.0,520.0,487.0,504.0,475.0,526.0,505.0,519.0,489.0,560.0,548.0,510.0,532.0,527.0,489.0,472.0,494.0,522.0,500.0,498.0,495.0,530.0,514.0,472.0,516.0,482.0,520.0,506.0,522.0,517.0,506.0,495.0,536.0,496.0,535.0,560.0,526.0,536.0,520.0,502.0,523.0,496.0,538.0
0,95.0,182.0,94.0,458.0,472.0,482.0,514.7333333333333,502.3333333333333,516.2666666666667,458.0,477.0,566.0,553.0,560.0,566.0,519.0,525.0,510.0,522.0,526.0,538.0,553.0,509.0,521.0,481.0,536.0,484.0,515.0,506.0,536.0,519.0,521.0,520.0,487.0,458.0,475.0,526.0,505.0,519.0,489.0,560.0,548.0,510.0,532.0,527.0,489.0,472.0,494.0,522.0,500.0,498.0,495.0,530.0,514.0,477.0,516.0,482.0,520.0,506.0,522.0,517.0,506.0,495.0,536.0,496.0,535.0,560.0,526.0,536.0,520.0,502.0,523.0,496.0,538.0,566.0
0,95.0,182.0,94.0,458.0,472.0,482.0,514.3,503.96666666666664,516.5,507.0,503.0,517.0,553.0,560.0,566.0,525.0,510.0,522.0,526.0,538.0,553.0,509.0,521.0,481.0,536.0,484.0,515.0,506.0,536.0,519.0,521.0,520.0,487.0,458.0,507.0,526.0,505.0,519.0,489.0,560.0,548.0,510.0,532.0,527.0,489.0,472.0,494.0,522.0,500.0,498.0,495.0,530.0,514.0,477.0,503.0,482.0,520.0,506.0,522.0,517.0,506.0,495.0,536.0,496.0,535.0,560.0,526.0,536.0,520.0,502.0,523.0,496.0,538.0,566.0,517.0
0,95.0,182.0,94.0,458.0,472.0,495.0,513.5666666666667,502.26666666666665,515.0333333333333,515.0,477.0,506.0,553.0,560.0,566.0,510.0,522.0,526.0,538.0,553.0,509.0,521.0,481.0,536.0,484.0,515.0,506.0,536.0,519.0,521.0,520.0,487.0,458.0,507.0,515.0,505.0,519.0,489.0,560.0,548.0,510.0,532.0,527.0,489.0,472.0,494.0,522.0,500.0,498.0,495.0,530.0,514.0,477.0,503.0,477.0,520.0,506.0,522.0,517.0,506.0,495.0,536.0,496.0,535.0,560.0,526.0,536.0,520.0,502.0,523.0,496.0,538.0,566.0,517.0,506.0
0,95.0,160.0,94.0,458.0,472.0,495.0,512.3,500.06666666666666,515.8333333333334,493.0,516.0,520.0,553.0,560.0,566.0,522.0,526.0,538.0,553.0,509.0,521.0,481.0,536.0,484.0,515.0,506.0,536.0,519.0,521.0,520.0,487.0,458.0,507.0,515.0,493.0,519.0,489.0,560.0,548.0,510.0,532.0,527.0,489.0,472.0,494.0,522.0,500.0,498.0,495.0,530.0,514.0,477.0,503.0,477.0,516.0,506.0,522.0,517.0,506.0,495.0,536.0,496.0,535.0,560.0,526.0,536.0,520.0,502.0,523.0,496.0,538.0,566.0,517.0,506.0,520.0
0,95.0,160.0,94.0,458.0,472.0,495.0,513.3666666666667,502.53333333333336,514.9666666666667,502.0,522.0,510.0,553.0,560.0,566.0,526.0,538.0,553.0,509.0,521.0,481.0,536.0,484.0,515.0,506.0,536.0,519.0,521.0,520.0,487.0,458.0,507.0,515.0,493.0,502.0,489.0,560.0,548.0,510.0,532.0,527.0,489.0,472.0,494.0,522.0,500.0,498.0,495.0,530.0,514.0,477.0,503.0,477.0,516.0,522.0,522.0,517.0,506.0,495.0,536.0,496.0,535.0,560.0,526.0,536.0,520.0,502.0,523.0,496.0,538.0,566.0,517.0,506.0,520.0,510.0
0,95.0,160.0,100.0,458.0,472.0,466.0,513.1,502.46666666666664,514.6,496.0,497.0,466.0,553.0,560.0,566.0,538.0,553.0,509.0,521.0,481.0,536.0,484.0,515.0,506.0,536.0,519.0,521.0,520.0,487.0,458.0,507.0,515.0,493.0,502.0,496.0,560.0,548.0,510.0,532.0,527.0,489.0,472.0,494.0,522.0,500.0,498.0,495.0,530.0,514.0,477.0,503.0,477.0,516.0,522.0,497.0,517.0,506.0,495.0,536.0,496.0,535.0,560.0,526.0,536.0,520.0,502.0,523.0,496.0,538.0,566.0,517.0,506.0,520.0,510.0,466.0
0,95.0,101.0,100.0,458.0,472.0,466.0,514.0666666666667,505.73333333333335,513.5,519.0,498.0,527.0,553.0,548.0,566.0,553.0,509.0,521.0,481.0,536.0,484.0,515.0,506.0,536.0,519.0,521.0,520.0,487.0,458.0,507.0,515.0,493.0,502.0,496.0,519.0,548.0,510.0,532.0,527.0,489.0,472.0,494.0,522.0,500.0,498.0,495.0,530.0,514.0,477.0,503.0,477.0,516.0,522.0,497.0,498.0,506.0,495.0,536.0,496.0,535.0,560.0,526.0,536.0,520.0,502.0,523.0,496.0,538.0,566.0,517.0,506.0,520.0,510.0,466.0,527.0
0,95.0,88.0,102.0,458.0,472.0,466.0,513.5333333333333,507.6666666666667,516.2,470.0,517.0,568.0,536.0,532.0,568.0,509.0,521.0,481.0,536.0,484.0,515.0,506.0,536.0,519.0,521.0,520.0,487.0,458.0,507.0,515.0,493.0,502.0,496.0,519.0,470.0,510.0,532.0,527.0,489.0,472.0,494.0,522.0,500.0,498.0,495.0,530.0,514.0,477.0,503.0,477.0,516.0,522.0,497.0,498.0,517.0,495.0,536.0,496.0,535.0,560.0,526.0,536.0,520.0,502.0,523.0,496.0,538.0,566.0,517.0,506.0,520.0,510.0,466.0,527.0,568.0
0,95.0,88.0,113.0,458.0,472.0,455.0,512.6333333333333,507.46666666666664,514.1666666666666,496.0,526.0,455.0,536.0,532.0,568.0,521.0,481.0,536.0,484.0,515.0,506.0,536.0,519.0,521.0,520.0,487.0,458.0,507.0,515.0,493.0,502.0,496.0,519.0,470.0,496.0,532.0,527.0,489.0,472.0,494.0,522.0,500.0,498.0,495.0,530.0,514.0,477.0,503.0,477.0,516.0,522.0,497.0,498.0,517.0,526.0,536.0,496.0,535.0,560.0,526.0,536.0,520.0,502.0,523.0,496.0,538.0,566.0,517.0,506.0,520.0,510.0,466.0,527.0,568.0,455.0
0,95.0,88.0,113.0,458.0,472.0,455.0,512.2,508.73333333333335,516.2666666666667,533.0,520.0,549.0,536.0,530.0,568.0,481.0,536.0,484.0,515.0,506.0,536.0,519.0,521.0,520.0,487.0,458.0,507.0,515.0,493.0,502.0,496.0,519.0,470.0,496.0,533.0,527.0,489.0,472.0,494.0,522.0,500.0,498.0,495.0,530.0,514.0,477.0,503.0,477.0,516.0,522.0,497.0,498.0,517.0,526.0,520.0,496.0,535.0,560.0,526.0,536.0,520.0,502.0,523.0,496.0,538.0,566.0,517.0,506.0,520.0,510.0,466.0,527.0,568.0,455.0,549.0
0,95.0,88.0,113.0,458.0,472.0,455.0,510.8666666666667,508.6,515.8333333333334,509.0,500.0,459.0,536.0,530.0,568.0,536.0,484.0,515.0,506.0,536.0,519.0,521.0,520.0,487.0,458.0,507.0,515.0,493.0,502.0,496.0,519.0,470.0,496.0,533.0,509.0,489.0,472.0,494.0,522.0,500.0,498.0,495.0,530.0,514.0,477.0,503.0,477.0,516.0,522.0,497.0,498.0,517.0,526.0,520.0,500.0,535.0,560.0,526.0,536.0,520.0,502.0,523.0,496.0,538.0,566.0,517.0,506.0,520.0,510.0,466.0,527.0,568.0,455.0,549.0,459.0
0,95.0,88.0,120.0,458.0,472.0,455.0,510.9,509.8333333333333,517.8,520.0,512.0,575.0,536.0,530.0,575.0,484.0,515.0,506.0,536.0,519.0,521.0,520.0,487.0,458.0,507.0,515.0,493.0,502.0,496.0,519.0,470.0,496.0,533.0,509.0,520.0,472.0,494.0,522.0,500.0,498.0,495.0,530.0,514.0,477.0,503.0,477.0,516.0,522.0,497.0,498.0,517.0,526.0,520.0,500.0,512.0,560.0,526.0,536.0,520.0,502.0,523.0,496.0,538.0,566.0,517.0,506.0,520.0,510.0,466.0,527.0,568.0,455.0,549.0,459.0,575.0
0,95.0,88.0,120.0,458.0,477.0,455.0,509.56666666666666,508.7,517.8333333333334,485.0,492.0,483.0,536.0,530.0,575.0,515.0,506.0,536.0,519.0,521.0,520.0,487.0,458.0,507.0,515.0,493.0,502.0,496.0,519.0,470.0,496.0,533.0,509.0,520.0,485.0,494.0,522.0,500.0,498.0,495.0,530.0,514.0,477.0,503.0,477.0,516.0,522.0,497.0,498.0,517.0,526.0,520.0,500.0,512.0,492.0,526.0,536.0,520.0,502.0,523.0,496.0,538.0,566.0,517.0,506.0,520.0,510.0,466.0,527.0,568.0,455.0,549.0,459.0,575.0,483.0
0,95.0,88.0,120.0,458.0,477.0,455.0,509.76666666666665,508.8,519.6666666666666,516.0,508.0,575.0,536.0,530.0,575.0,506.0,536.0,519.0,521.0,520.0,487.0,458.0,507.0,515.0,493.0,502.0,496.0,519.0,470.0,496.0,533.0,509.0,520.0,485.0,516.0,522.0,500.0,498.0,495.0,530.0,514.0,477.0,503.0,477.0,516.0,522.0,497.0,498.0,517.0,526.0,520.0,500.0,512.0,492.0,508.0,536.0,520.0,502.0,523.0,496.0,538.0,566.0,517.0,506.0,520.0,510.0,466.0,527.0,568.0,455.0,549.0,459.0,575.0,483.0,575.0
0,95.0,88.0,120.0,458.0,477.0,455.0,509.6666666666667,508.1666666666667,519.2666666666667,519.0,500.0,494.0,536.0,530.0,575.0,536.0,519.0,521.0,520.0,487.0,458.0,507.0,515.0,493.0,502.0,496.0,519.0,470.0,496.0,533.0,509.0,520.0,485.0,516.0,519.0,500.0,498.0,495.0,530.0,514.0,477.0,503.0,477.0,516.0,522.0,497.0,498.0,517.0,526.0,520.0,500.0,512.0,492.0,508.0,500.0,520.0,502.0,523.0,496.0,538.0,566.0,517.0,506.0,520.0,510.0,466.0,527.0,568.0,455.0,549.0,459.0,575.0,483.0,575.0,494.0
0,95.0,88.0,122.0,458.0,477.0,455.0,509.46666666666664,508.3666666666667,521.1,520.0,495.0,577.0,533.0,530.0,577.0,519.0,521.0,520.0,487.0,458.0,507.0,515.0,493.0,502.0,496.0,519.0,470.0,496.0,533.0,509.0,520.0,485.0,516.0,519.0,520.0,498.0,495.0,530.0,514.0,477.0,503.0,477.0,516.0,522.0,497.0,498.0,517.0,526.0,520.0,500.0,512.0,492.0,508.0,500.0,495.0,502.0,523.0,496.0,538.0,566.0,517.0,506.0,520.0,510.0,466.0,527.0,568.0,455.0,549.0,459.0,575.0,483.0,575.0,494.0,577.0
0,95.0,76.0,122.0,458.0,477.0,455.0,508.6,507.1333333333333,521.3666666666667,512.0,523.0,525.0,533.0,530.0,577.0,521.0,520.0,487.0,458.0,507.0,515.0,493.0,502.0,496.0,519.0,470.0,496.0,533.0,509.0,520.0,485.0,516.0,519.0,520.0,512.0,495.0,530.0,514.0,477.0,503.0,477.0,516.0,522.0,497.0,498.0,517.0,526.0,520.0,500.0,512.0,492.0,508.0,500.0,495.0,523.0,523.0,496.0,538.0,566.0,517.0,506.0,520.0,510.0,466.0,527.0,568.0,455.0,549.0,459.0,575.0,483.0,575.0,494.0,577.0,525.0
0,80.0,60.0,122.0,458.0,477.0,455.0,508.1,506.46666666666664,521.1666666666666,538.0,528.0,500.0,538.0,530.0,577.0,520.0,487.0,458.0,507.0,515.0,493.0,502.0,496.0,519.0,470.0,496.0,533.0,509.0,520.0,485.0,516.0,519.0,520.0,512.0,538.0,530.0,514.0,477.0,503.0,477.0,516.0,522.0,497.0,498.0,517.0,526.0,520.0,500.0,512.0,492.0,508.0,500.0,495.0,523.0,528.0,496.0,538.0,566.0,517.0,506.0,520.0,510.0,466.0,527.0,568.0,455.0,549.0,459.0,575.0,483.0,575.0,494.0,577.0,525.0,500.0
0,80.0,64.0,122.0,458.0,477.0,455.0,508.5,507.3333333333333,522.2333333333333,521.0,536.0,527.0,538.0,536.0,577.0,487.0,458.0,507.0,515.0,493.0,502.0,496.0,519.0,470.0,496.0,533.0,509.0,520.0,485.0,516.0,519.0,520.0,512.0,538.0,521.0,514.0,477.0,503.0,477.0,516.0,522.0,497.0,498.0,517.0,526.0,520.0,500.0,512.0,492.0,508.0,500.0,495.0,523.0,528.0,536.0,538.0,566.0,517.0,506.0,520.0,510.0,466.0,527.0,568.0,455.0,549.0,459.0,575.0,483.0,575.0,494.0,577.0,525.0,500.0,527.0
0,80.0,64.0,122.0,458.0,477.0,455.0,508.53333333333336,507.06666666666666,520.9333333333333,522.0,524.0,497.0,538.0,536.0,577.0,458.0,507.0,515.0,493.0,502.0,496.0,519.0,470.0,496.0,533.0,509.0,520.0,485.0,516.0,519.0,520.0,512.0,538.0,521.0,522.0,477.0,503.0,477.0,516.0,522.0,497.0,498.0,517.0,526.0,520.0,500.0,512.0,492.0,508.0,500.0,495.0,523.0,528.0,536.0,524.0,566.0,517.0,506.0,520.0,510.0,466.0,527.0,568.0,455.0,549.0,459.0,575.0,483.0,575.0,494.0,577.0,525.0,500.0,527.0,497.0
0,80.0,81.0,122.0,470.0,477.0,455.0,509.1,507.93333333333334,520.5333333333333,498.0,553.0,484.0,538.0,553.0,577.0,507.0,515.0,493.0,502.0,496.0,519.0,470.0,496.0,533.0,509.0,520.0,485.0,516.0,519.0,520.0,512.0,538.0,521.0,522.0,498.0,503.0,477.0,516.0,522.0,497.0,498.0,517.0,526.0,520.0,500.0,512.0,492.0,508.0,500.0,495.0,523.0,528.0,536.0,524.0,553.0,517.0,506.0,520.0,510.0,466.0,527.0,568.0,455.0,549.0,459.0,575.0,483.0,575.0,494.0,577.0,525.0,500.0,527.0,497.0,484.0
0,80.0,81.0,122.0,470.0,477.0,455.0,509.1333333333333,509.1666666666667,520.6666666666666,537.0,526.0,539.0,538.0,553.0,577.0,515.0,493.0,502.0,496.0,519.0,470.0,496.0,533.0,509.0,520.0,485.0,516.0,519.0,520.0,512.0,538.0,521.0,522.0,498.0,537.0,477.0,516.0,522.0,497.0,498.0,517.0,526.0,520.0,500.0,512.0,492.0,508.0,500.0,495.0,523.0,528.0,536.0,524.0,553.0,526.0,506.0,520.0,510.0,466.0,527.0,568.0,455.0,549.0,459.0,575.0,483.0,575.0,494.0,577.0,525.0,500.0,527.0,497.0,484.0,539.0
0,80.0,76.0,122.0,470.0,492.0,455.0,510.1666666666667,510.6333333333333,518.2333333333333,515.0,516.0,487.0,538.0,553.0,577.0,493.0,502.0,496.0,519.0,470.0,496.0,533.0,509.0,520.0,485.0,516.0,519.0,520.0,512.0,538.0,521.0,522.0,498.0,537.0,515.0,516.0,522.0,497.0,498.0,517.0,526.0,520.0,500.0,512.0,492.0,508.0,500.0,495.0,523.0,528.0,536.0,524.0,553.0,526.0,516.0,520.0,510.0,466.0,527.0,568.0,455.0,549.0,459.0,575.0,483.0,575.0,494.0,577.0,525.0,500.0,527.0,497.0,484.0,539.0,487.0
0,80.0,76.0,122.0,470.0,483.0,455.0,509.26666666666665,510.26666666666665,518.3666666666667,488.0,483.0,530.0,538.0,553.0,577.0,502.0,496.0,519.0,470.0,496.0,533.0,509.0,520.0,485.0,516.0,519.0,520.0,512.0,538.0,521.0,522.0,498.0,537.0,515.0,488.0,522.0,497.0,498.0,517.0,526.0,520.0,500.0,512.0,492.0,508.0,500.0,495.0,523.0,528.0,536.0,524.0,553.0,526.0,516.0,483.0,510.0,466.0,527.0,568.0,455.0,549.0,459.0,575.0,483.0,575.0,494.0,577.0,525.0,500.0,527.0,497.0,484.0,539.0,487.0,530.0
0,80.0,76.0,122.0,470.0,483.0,455.0,509.3666666666667,509.1666666666667,517.3666666666667,509.0,489.0,506.0,538.0,553.0,577.0,496.0,519.0,470.0,496.0,533.0,509.0,520.0,485.0,516.0,519.0,520.0,512.0,538.0,521.0,522.0,498.0,537.0,515.0,488.0,509.0,497.0,498.0,517.0,526.0,520.0,500.0,512.0,492.0,508.0,500.0,495.0,523.0,528.0,536.0,524.0,553.0,526.0,516.0,483.0,489.0,466.0,527.0,568.0,455.0,549.0,459.0,575.0,483.0,575.0,494.0,577.0,525.0,500.0,527.0,497.0,484.0,539.0,487.0,530.0,506.0
0,80.0,76.0,122.0,470.0,483.0,455.0,508.6333333333333,508.8,515.7666666666667,514.0,489.0,472.0,538.0,553.0,577.0,519.0,470.0,496.0,533.0,509.0,520.0,485.0,516.0,519.0,520.0,512.0,538.0,521.0,522.0,498.0,537.0,515.0,488.0,509.0,514.0,498.0,517.0,526.0,520.0,500.0,512.0,492.0,508.0,500.0,495.0,523.0,528.0,536.0,524.0,553.0,526.0,516.0,483.0,489.0,489.0,527.0,568.0,455.0,549.0,459.0,575.0,483.0,575.0,494.0,577.0,525.0,500.0,527.0,497.0,484.0,539.0,487.0,530.0,506.0,472.0
0,80.0,111.0,122.0,470.0,483.0,455.0,508.6,511.8,516.7666666666667,518.0,588.0,532.0,538.0,588.0,577.0,470.0,496.0,533.0,509.0,520.0,485.0,516.0,519.0,520.0,512.0,538.0,521.0,522.0,498.0,537.0,515.0,488.0,509.0,514.0,518.0,517.0,526.0,520.0,500.0,512.0,492.0,508.0,500.0,495.0,523.0,528.0,536.0,524.0,553.0,526.0,516.0,483.0,489.0,489.0,588.0,568.0,455.0,549.0,459.0,575.0,483.0,575.0,494.0,577.0,525.0,500.0,527.0,497.0,484.0,539.0,487.0,530.0,506.0,472.0,532.0
0,105.0,111.0,122.0,485.0,483.0,455.0,510.0,511.6666666666667,517.2333333333333,563.0,491.0,537.0,563.0,588.0,577.0,496.0,533.0,509.0,520.0,485.0,516.0,519.0,520.0,512.0,538.0,521.0,522.0,498.0,537.0,515.0,488.0,509.0,514.0,518.0,563.0,526.0,520.0,500.0,512.0,492.0,508.0,500.0,495.0,523.0,528.0,536.0,524.0,553.0,526.0,516.0,483.0,489.0,489.0,588.0,491.0,455.0,549.0,459.0,575.0,483.0,575.0,494.0,577.0,525.0,500.0,527.0,497.0,484.0,539.0,487.0,530.0,506.0,472.0,532.0,537.0
0,105.0,111.0,122.0,485.0,483.0,459.0,509.5,511.1,518.2,505.0,513.0,525.0,563.0,588.0,577.0,533.0,509.0,520.0,485.0,516.0,519.0,520.0,512.0,538.0,521.0,522.0,498.0,537.0,515.0,488.0,509.0,514.0,518.0,563.0,505.0,520.0,500.0,512.0,492.0,508.0,500.0,495.0,523.0,528.0,536.0,524.0,553.0,526.0,516.0,483.0,489.0,489.0,588.0,491.0,513.0,549.0,459.0,575.0,483.0,575.0,494.0,577.0,525.0,500.0,527.0,497.0,484.0,539.0,487.0,530.0,506.0,472.0,532.0,537.0,525.0
0,105.0,123.0,122.0,485.0,465.0,459.0,509.5,509.46666666666664,516.7,487.0,465.0,493.0,563.0,588.0,577.0,509.0,520.0,485.0,516.0,519.0,520.0,512.0,538.0,521.0,522.0,498.0,537.0,515.0,488.0,509.0,514.0,518.0,563.0,505.0,487.0,500.0,512.0,492.0,508.0,500.0,495.0,523.0,528.0,536.0,524.0,553.0,526.0,516.0,483.0,489.0,489.0,588.0,491.0,513.0,465.0,459.0,575.0,483.0,575.0,494.0,577.0,525.0,500.0,527.0,497.0,484.0,539.0,487.0,530.0,506.0,472.0,532.0,537.0,525.0,493.0
0,116.0,123.0,136.0,447.0,465.0,441.0,509.1333333333333,512.6666666666666,512.5333333333333,447.0,573.0,441.0,563.0,588.0,577.0,520.0,485.0,516.0,519.0,520.0,512.0,538.0,521.0,522.0,498.0,537.0,515.0,488.0,509.0,514.0,518.0,563.0,505.0,487.0,447.0,512.0,492.0,508.0,500.0,495.0,523.0,528.0,536.0,524.0,553.0,526.0,516.0,483.0,489.0,489.0,588.0,491.0,513.0,465.0,573.0,575.0,483.0,575.0,494.0,577.0,525.0,500.0,527.0,497.0,484.0,539.0,487.0,530.0,506.0,472.0,532.0,537.0,525.0,493.0,441.0
0,116.0,126.0,161.0,447.0,462.0,441.0,508.1666666666667,511.3,515.3666666666667,478.0,462.0,602.0,563.0,588.0,602.0,485.0,516.0,519.0,520.0,512.0,538.0,521.0,522.0,498.0,537.0,515.0,488.0,509.0,514.0,518.0,563.0,505.0,487.0,447.0,478.0,492.0,508.0,500.0,495.0,523.0,528.0,536.0,524.0,553.0,526.0,516.0,483.0,489.0,489.0,588.0,491.0,513.0,465.0,573.0,462.0,483.0,575.0,494.0,577.0,525.0,500.0,527.0,497.0,484.0,539.0,487.0,530.0,506.0,472.0,532.0,537.0,525.0,493.0,441.0,602.0
0,116.0,126.0,168.0,447.0,462.0,434.0,507.76666666666665,514.0333333333333,512.9666666666667,503.0,559.0,434.0,563.0,588.0,602.0,516.0,519.0,520.0,512.0,538.0,521.0,522.0,498.0,537.0,515.0,488.0,509.0,514.0,518.0,563.0,505.0,487.0,447.0,478.0,503.0,508.0,500.0,495.0,523.0,528.0,536.0,524.0,553.0,526.0,516.0,483.0,489.0,489.0,588.0,491.0,513.0,465.0,573.0,462.0,559.0,575.0,494.0,577.0,525.0,500.0,527.0,497.0,484.0,539.0,487.0,530.0,506.0,472.0,532.0,537.0,525.0,493.0,441.0,602.0,434.0
0,164.0,126.0,168.0,447.0,462.0,434.0,511.7,513.1,513.1,611.0,488.0,524.0,611.0,588.0,602.0,519.0,520.0,512.0,538.0,521.0,522.0,498.0,537.0,515.0,488.0,509.0,514.0,518.0,563.0,505.0,487.0,447.0,478.0,503.0,611.0,500.0,495.0,523.0,528.0,536.0,524.0,553.0,526.0,516.0,483.0,489.0,489.0,588.0,491.0,513.0,465.0,573.0,462.0,559.0,488.0,494.0,577.0,525.0,500.0,527.0,497.0,484.0,539.0,487.0,530.0,506.0,472.0,532.0,537.0,525.0,493.0,441.0,602.0,434.0,524.0
0,164.0,190.0,168.0,447.0,398.0,434.0,510.6,508.96666666666664,513.5666666666667,469.0,398.0,524.0,611.0,588.0,602.0,520.0,512.0,538.0,521.0,522.0,498.0,537.0,515.0,488.0,509.0,514.0,518.0,563.0,505.0,487.0,447.0,478.0,503.0,611.0,469.0,495.0,523.0,528.0,536.0,524.0,553.0,526.0,516.0,483.0,489.0,489.0,588.0,491.0,513.0,465.0,573.0,462.0,559.0,488.0,398.0,577.0,525.0,500.0,527.0,497.0,484.0,539.0,487.0,530.0,506.0,472.0,532.0,537.0,525.0,493.0,441.0,602.0,434.0,524.0,524.0
0,164.0,190.0,168.0,447.0,398.0,434.0,511.06666666666666,509.1,514.5333333333333,510.0,501.0,495.0,611.0,588.0,602.0,512.0,538.0,521.0,522.0,498.0,537.0,515.0,488.0,509.0,514.0,518.0,563.0,505.0,487.0,447.0,478.0,503.0,611.0,469.0,510.0,523.0,528.0,536.0,524.0,553.0,526.0,516.0,483.0,489.0,489.0,588.0,491.0,513.0,465.0,573.0,462.0,559.0,488.0,398.0,501.0,525.0,500.0,527.0,497.0,484.0,539.0,487.0,530.0,506.0,472.0,532.0,537.0,525.0,493.0,441.0,602.0,434.0,524.0,524.0,495.0
0,164.0,190.0,168.0,447.0,398.0,434.0,510.46666666666664,508.6666666666667,512.4,501.0,485.0,463.0,611.0,588.0,602.0,538.0,521.0,522.0,498.0,537.0,515.0,488.0,509.0,514.0,518.0,563.0,505.0,487.0,447.0,478.0,503.0,611.0,469.0,510.0,501.0,528.0,536.0,524.0,553.0,526.0,516.0,483.0,489.0,489.0,588.0,491.0,513.0,465.0,573.0,462.0,559.0,488.0,398.0,501.0,485.0,500.0,527.0,497.0,484.0,539.0,487.0,530.0,506.0,472.0,532.0,537.0,525.0,493.0,441.0,602.0,434.0,524.0,524.0,495.0,463.0
0,164.0,190.0,168.0,447.0,398.0,434.0,512.9,509.43333333333334,510.8666666666667,543.0,540.0,522.0,611.0,588.0,602.0,521.0,522.0,498.0,537.0,515.0,488.0,509.0,514.0,518.0,563.0,505.0,487.0,447.0,478.0,503.0,611.0,469.0,510.0,501.0,543.0,536.0,524.0,553.0,526.0,516.0,483.0,489.0,489.0,588.0,491.0,513.0,465.0,573.0,462.0,559.0,488.0,398.0,501.0,485.0,540.0,527.0,497.0,484.0,539.0,487.0,530.0,506.0,472.0,532.0,537.0,525.0,493.0,441.0,602.0,434.0,524.0,524.0,495.0,463.0,522.0
0,164.0,190.0,170.0,447.0,398.0,432.0,513.5,509.1,510.1,514.0,516.0,432.0,611.0,588.0,602.0,522.0,498.0,537.0,515.0,488.0,509.0,514.0,518.0,563.0,505.0,487.0,447.0,478.0,503.0,611.0,469.0,510.0,501.0,543.0,514.0,524.0,553.0,526.0,516.0,483.0,489.0,489.0,588.0,491.0,513.0,465.0,573.0,462.0,559.0,488.0,398.0,501.0,485.0,540.0,516.0,497.0,484.0,539.0,487.0,530.0,506.0,472.0,532.0,537.0,525.0,493.0,441.0,602.0,434.0,524.0,524.0,495.0,463.0,522.0,432.0
0,164.0,190.0,170.0,447.0,398.0,432.0,514.1666666666666,506.96666666666664,507.46666666666664,553.0,456.0,470.0,611.0,588.0,602.0,498.0,537.0,515.0,488.0,509.0,514.0,518.0,563.0,505.0,487.0,447.0,478.0,503.0,611.0,469.0,510.0,501.0,543.0,514.0,553.0,553.0,526.0,516.0,483.0,489.0,489.0,588.0,491.0,513.0,465.0,573.0,462.0,559.0,488.0,398.0,501.0,485.0,540.0,516.0,456.0,484.0,539.0,487.0,530.0,506.0,472.0,532.0,537.0,525.0,493.0,441.0,602.0,434.0,524.0,524.0,495.0,463.0,522.0,432.0,470.0
0,164.0,226.0,170.0,447.0,362.0,432.0,512.8666666666667,502.3666666666667,511.23333333333335,470.0,362.0,572.0,611.0,588.0,602.0,537.0,515.0,488.0,509.0,514.0,518.0,563.0,505.0,487.0,447.0,478.0,503.0,611.0,469.0,510.0,501.0,543.0,514.0,553.0,470.0,526.0,516.0,483.0,489.0,489.0,588.0,491.0,513.0,465.0,573.0,462.0,559.0,488.0,398.0,501.0,485.0,540.0,516.0,456.0,362.0,539.0,487.0,530.0,506.0,472.0,532.0,537.0,525.0,493.0,441.0,602.0,434.0,524.0,524.0,495.0,463.0,522.0,432.0,470.0,572.0
0,164.0,226.0,170.0,447.0,362.0,432.0,510.73333333333335,501.1,511.06666666666666,456.0,474.0,570.0,611.0,588.0,602.0,515.0,488.0,509.0,514.0,518.0,563.0,505.0,487.0,447.0,478.0,503.0,611.0,469.0,510.0,501.0,543.0,514.0,553.0,470.0,456.0,516.0,483.0,489.0,489.0,588.0,491.0,513.0,465.0,573.0,462.0,559.0,488.0,398.0,501.0,485.0,540.0,516.0,456.0,362.0,474.0,487.0,530.0,506.0,472.0,532.0,537.0,525.0,493.0,441.0,602.0,434.0,524.0,524.0,495.0,463.0,522.0,432.0,470.0,572.0,570.0
0,164.0,226.0,170.0,447.0,362.0,432.0,510.4,499.2,510.73333333333335,475.0,435.0,473.0,611.0,588.0,602.0,488.0,509.0,514.0,518.0,563.0,505.0,487.0,447.0,478.0,503.0,611.0,469.0,510.0,501.0,543.0,514.0,553.0,470.0,456.0,475.0,483.0,489.0,489.0,588.0,491.0,513.0,465.0,573.0,462.0,559.0,488.0,398.0,501.0,485.0,540.0,516.0,456.0,362.0,474.0,435.0,530.0,506.0,472.0,532.0,537.0,525.0,493.0,441.0,602.0,434.0,524.0,524.0,495.0,463.0,522.0,432.0,470.0,572.0,570.0,473.0
0,164.0,226.0,170.0,447.0,362.0,432.0,509.53333333333336,496.8333333333333,511.3666666666667,490.0,437.0,594.0,611.0,588.0,602.0,509.0,514.0,518.0,563.0,505.0,487.0,447.0,478.0,503.0,611.0,469.0,510.0,501.0,543.0,514.0,553.0,470.0,456.0,475.0,490.0,489.0,489.0,588.0,491.0,513.0,465.0,573.0,462.0,559.0,488.0,398.0,501.0,485.0,540.0,516.0,456.0,362.0,474.0,435.0,437.0,506.0,472.0,532.0,537.0,525.0,493.0,441.0,602.0,434.0,524.0,524.0,495.0,463.0,522.0,432.0,470.0,572.0,570.0,473.0,594.0
0,164.0,226.0,170.0,447.0,362.0,432.0,510.93333333333334,497.23333333333335,510.6666666666667,561.0,512.0,473.0,611.0,588.0,602.0,514.0,518.0,563.0,505.0,487.0,447.0,478.0,503.0,611.0,469.0,510.0,501.0,543.0,514.0,553.0,470.0,456.0,475.0,490.0,561.0,489.0,588.0,491.0,513.0,465.0,573.0,462.0,559.0,488.0,398.0,501.0,485.0,540.0,516.0,456.0,362.0,474.0,435.0,437.0,512.0,472.0,532.0,537.0,525.0,493.0,441.0,602.0,434.0,524.0,524.0,495.0,463.0,522.0,432.0,470.0,572.0,570.0,473.0,594.0,473.0
0,164.0,297.0,170.0,447.0,362.0,432.0,511.1666666666667,502.7,507.93333333333334,527.0,659.0,495.0,611.0,659.0,602.0,518.0,563.0,505.0,487.0,447.0,478.0,503.0,611.0,469.0,510.0,501.0,543.0,514.0,553.0,470.0,456.0,475.0,490.0,561.0,527.0,588.0,491.0,513.0,465.0,573.0,462.0,559.0,488.0,398.0,501.0,485.0,540.0,516.0,456.0,362.0,474.0,435.0,437.0,512.0,659.0,532.0,537.0,525.0,493.0,441.0,602.0,434.0,524.0,524.0,495.0,463.0,522.0,432.0,470.0,572.0,570.0,473.0,594.0,473.0,495.0
0,164.0,297.0,170.0,447.0,362.0,432.0,510.3666666666667,502.0,509.6333333333333,488.0,502.0,576.0,611.0,659.0,602.0,563.0,505.0,487.0,447.0,478.0,503.0,611.0,469.0,510.0,501.0,543.0,514.0,553.0,470.0,456.0,475.0,490.0,561.0,527.0,488.0,491.0,513.0,465.0,573.0,462.0,559.0,488.0,398.0,501.0,485.0,540.0,516.0,456.0,362.0,474.0,435.0,437.0,512.0,659.0,502.0,537.0,525.0,493.0,441.0,602.0,434.0,524.0,524.0,495.0,463.0,522.0,432.0,470.0,572.0,570.0,473.0,594.0,473.0,495.0,576.0
0,164.0,297.0,170.0,447.0,362.0,432.0,509.1666666666667,501.1,508.4,502.0,501.0,463.0,611.0,659.0,602.0,505.0,487.0,447.0,478.0,503.0,611.0,469.0,510.0,501.0,543.0,514.0,553.0,470.0,456.0,475.0,490.0,561.0,527.0,488.0,502.0,513.0,465.0,573.0,462.0,559.0,488.0,398.0,501.0,485.0,540.0,516.0,456.0,362.0,474.0,435.0,437.0,512.0,659.0,502.0,501.0,525.0,493.0,441.0,602.0,434.0,524.0,524.0,495.0,463.0,522.0,432.0,470.0,572.0,570.0,473.0,594.0,473.0,495.0,576.0,463.0
0,164.0,297.0,170.0,447.0,362.0,432.0,509.5,497.8333333333333,509.1666666666667,531.0,438.0,550.0,611.0,659.0,602.0,487.0,447.0,478.0,503.0,611.0,469.0,510.0,501.0,543.0,514.0,553.0,470.0,456.0,475.0,490.0,561.0,527.0,488.0,502.0,531.0,465.0,573.0,462.0,559.0,488.0,398.0,501.0,485.0,540.0,516.0,456.0,362.0,474.0,435.0,437.0,512.0,659.0,502.0,501.0,438.0,493.0,441.0,602.0,434.0,524.0,524.0,495.0,463.0,522.0,432.0,470.0,572.0,570.0,473.0,594.0,473.0,495.0,576.0,463.0,550.0
0,164.0,297.0,170.0,447.0,362.0,432.0,509.56666666666666,498.1666666666667,510.9,524.0,534.0,549.0,611.0,659.0,602.0,447.0,478.0,503.0,611.0,469.0,510.0,501.0,543.0,514.0,553.0,470.0,456.0,475.0,490.0,561.0,527.0,488.0,502.0,531.0,524.0,573.0,462.0,559.0,488.0,398.0,501.0,485.0,540.0,516.0,456.0,362.0,474.0,435.0,437.0,512.0,659.0,502.0,501.0,438.0,534.0,441.0,602.0,434.0,524.0,524.0,495.0,463.0,522.0,432.0,470.0,572.0,570.0,473.0,594.0,473.0,495.0,576.0,463.0,550.0,549.0
0,164.0,297.0,170.0,456.0,362.0,432.0,510.23333333333335,496.46666666666664,511.0,518.0,502.0,487.0,611.0,659.0,602.0,478.0,503.0,611.0,469.0,510.0,501.0,543.0,514.0,553.0,470.0,456.0,475.0,490.0,561.0,527.0,488.0,502.0,531.0,524.0,518.0,462.0,559.0,488.0,398.0,501.0,485.0,540.0,516.0,456.0,362.0,474.0,435.0,437.0,512.0,659.0,502.0,501.0,438.0,534.0,502.0,602.0,434.0,524.0,524.0,495.0,463.0,522.0,432.0,470.0,572.0,570.0,473.0,594.0,473.0,495.0,576.0,463.0,550.0,549.0,487.0
0,164.0,297.0,170.0,456.0,362.0,432.0,509.8666666666667,497.3,510.56666666666666,526.0,551.0,526.0,611.0,659.0,594.0,503.0,611.0,469.0,510.0,501.0,543.0,514.0,553.0,470.0,456.0,475.0,490.0,561.0,527.0,488.0,502.0,531.0,524.0,518.0,526.0,559.0,488.0,398.0,501.0,485.0,540.0,516.0,456.0,362.0,474.0,435.0,437.0,512.0,659.0,502.0,501.0,438.0,534.0,502.0,551.0,434.0,524.0,524.0,495.0,463.0,522.0,432.0,470.0,572.0,570.0,473.0,594.0,473.0,495.0,576.0,463.0,550.0,549.0,487.0,526.0
0,164.0,297.0,170.0,456.0,362.0,432.0,509.1333333333333,497.6666666666667,510.56666666666666,493.0,527.0,487.0,611.0,659.0,594.0,611.0,469.0,510.0,501.0,543.0,514.0,553.0,470.0,456.0,475.0,490.0,561.0,527.0,488.0,502.0,531.0,524.0,518.0,526.0,493.0,488.0,398.0,501.0,485.0,540.0,516.0,456.0,362.0,474.0,435.0,437.0,512.0,659.0,502.0,501.0,438.0,534.0,502.0,551.0,527.0,524.0,524.0,495.0,463.0,522.0,432.0,470.0,572.0,570.0,473.0,594.0,473.0,495.0,576.0,463.0,550.0,549.0,487.0,526.0,487.0
0,164.0,297.0,170.0,456.0,362.0,432.0,512.6333333333333,497.6,509.6666666666667,593.0,481.0,503.0,593.0,659.0,594.0,469.0,510.0,501.0,543.0,514.0,553.0,470.0,456.0,475.0,490.0,561.0,527.0,488.0,502.0,531.0,524.0,518.0,526.0,493.0,593.0,398.0,501.0,485.0,540.0,516.0,456.0,362.0,474.0,435.0,437.0,512.0,659.0,502.0,501.0,438.0,534.0,502.0,551.0,527.0,481.0,524.0,495.0,463.0,522.0,432.0,470.0,572.0,570.0,473.0,594.0,473.0,495.0,576.0,463.0,550.0,549.0,487.0,526.0,487.0,503.0
0,164.0,297.0,170.0,456.0,362.0,432.0,514.6666666666666,499.26666666666665,509.8666666666667,570.0,539.0,512.0,593.0,659.0,594.0,510.0,501.0,543.0,514.0,553.0,470.0,456.0,475.0,490.0,561.0,527.0,488.0,502.0,531.0,524.0,518.0,526.0,493.0,593.0,570.0,501.0,485.0,540.0,516.0,456.0,362.0,474.0,435.0,437.0,512.0,659.0,502.0,501.0,438.0,534.0,502.0,551.0,527.0,481.0,539.0,495.0,463.0,522.0,432.0,470.0,572.0,570.0,473.0,594.0,473.0,495.0,576.0,463.0,550.0,549.0,487.0,526.0,487.0,503.0,512.0
0,164.0,297.0,170.0,456.0,362.0,432.0,515.0333333333333,496.8666666666667,511.43333333333334,525.0,417.0,519.0,593.0,659.0,594.0,501.0,543.0,514.0,553.0,470.0,456.0,475.0,490.0,561.0,527.0,488.0,502.0,531.0,524.0,518.0,526.0,493.0,593.0,570.0,525.0,485.0,540.0,516.0,456.0,362.0,474.0,435.0,437.0,512.0,659.0,502.0,501.0,438.0,534.0,502.0,551.0,527.0,481.0,539.0,417.0,463.0,522.0,432.0,470.0,572.0,570.0,473.0,594.0,473.0,495.0,576.0,463.0,550.0,549.0,487.0,526.0,487.0,503.0,512.0,519.0
0,164.0,297.0,170.0,456.0,362.0,432.0,516.1666666666666,493.93333333333334,510.06666666666666,552.0,500.0,491.0,593.0,659.0,594.0,543.0,514.0,553.0,470.0,456.0,475.0,490.0,561.0,527.0,488.0,502.0,531.0,524.0,518.0,526.0,493.0,593.0,570.0,525.0,552.0,540.0,516.0,456.0,362.0,474.0,435.0,437.0,512.0,659.0,502.0,501.0,438.0,534.0,502.0,551.0,527.0,481.0,539.0,417.0,500.0,522.0,432.0,470.0,572.0,570.0,473.0,594.0,473.0,495.0,576.0,463.0,550.0,549.0,487.0,526.0,487.0,503.0,512.0,519.0,491.0
0,164.0,297.0,170.0,456.0,362.0,432.0,513.4666666666667,494.93333333333334,508.56666666666666,482.0,521.0,492.0,593.0,659.0,594.0,514.0,553.0,470.0,456.0,475.0,490.0,561.0,527.0,488.0,502.0,531.0,524.0,518.0,526.0,493.0,593.0,570.0,525.0,552.0,482.0,516.0,456.0,362.0,474.0,435.0,437.0,512.0,659.0,502.0,501.0,438.0,534.0,502.0,551.0,527.0,481.0,539.0,417.0,500.0,521.0,432.0,470.0,572.0,570.0,473.0,594.0,473.0,495.0,576.0,463.0,550.0,549.0,487.0,526.0,487.0,503.0,512.0,519.0,491.0,492.0
0,164.0,297.0,170.0,456.0,362.0,463.0,513.7666666666667,496.5,507.73333333333335,514.0,560.0,500.0,593.0,659.0,594.0,553.0,470.0,456.0,475.0,490.0,561.0,527.0,488.0,502.0,531.0,524.0,518.0,526.0,493.0,593.0,570.0,525.0,552.0,482.0,514.0,456.0,362.0,474.0,435.0,437.0,512.0,659.0,502.0,501.0,438.0,534.0,502.0,551.0,527.0,481.0,539.0,417.0,500.0,521.0,560.0,470.0,572.0,570.0,473.0,594.0,473.0,495.0,576.0,463.0,550.0,549.0,487.0,526.0,487.0,503.0,512.0,519.0,491.0,492.0,500.0
0,164.0,297.0,170.0,456.0,362.0,463.0,514.1333333333333,498.3666666666667,507.8666666666667,498.0,521.0,497.0,593.0,659.0,594.0,470.0,456.0,475.0,490.0,561.0,527.0,488.0,502.0,531.0,524.0,518.0,526.0,493.0,593.0,570.0,525.0,552.0,482.0,514.0,498.0,362.0,474.0,435.0,437.0,512.0,659.0,502.0,501.0,438.0,534.0,502.0,551.0,527.0,481.0,539.0,417.0,500.0,521.0,560.0,521.0,572.0,570.0,473.0,594.0,473.0,495.0,576.0,463.0,550.0,549.0,487.0,526.0,487.0,503.0,512.0,519.0,491.0,492.0,500.0,497.0
0,155.0,297.0,170.0,456.0,417.0,463.0,515.7666666666667,495.76666666666665,511.23333333333335,496.0,495.0,542.0,593.0,659.0,594.0,456.0,475.0,490.0,561.0,527.0,488.0,502.0,531.0,524.0,518.0,526.0,493.0,593.0,570.0,525.0,552.0,482.0,514.0,498.0,496.0,474.0,435.0,437.0,512.0,659.0,502.0,501.0,438.0,534.0,502.0,551.0,527.0,481.0,539.0,417.0,500.0,521.0,560.0,521.0,495.0,570.0,473.0,594.0,473.0,495.0,576.0,463.0,550.0,549.0,487.0,526.0,487.0,503.0,512.0,519.0,491.0,492.0,500.0,497.0,542.0
0,155.0,297.0,162.0,475.0,417.0,463.0,517.0666666666667,498.8333333333333,507.3666666666667,517.0,554.0,486.0,593.0,659.0,594.0,475.0,490.0,561.0,527.0,488.0,502.0,531.0,524.0,518.0,526.0,493.0,593.0,570.0,525.0,552.0,482.0,514.0,498.0,496.0,517.0,435.0,437.0,512.0,659.0,502.0,501.0,438.0,534.0,502.0,551.0,527.0,481.0,539.0,417.0,500.0,521.0,560.0,521.0,495.0,554.0,473.0,594.0,473.0,495.0,576.0,463.0,550.0,549.0,487.0,526.0,487.0,503.0,512.0,519.0,491.0,492.0,500.0,497.0,542.0,486.0
