,unixtime,emg0,emg1,emg0_ampl,emg1_ampl,emg0_med,emg1_med
0,0.0,0.0,0.0,0.0,0.0,0.0,0.0
1,1555413308.390397,500.0,501.0,500.0,501.0,25.0,25.05
2,1555413308.4566836,503.0,543.0,503.0,543.0,50.15,52.2
3,1555413308.5204637,539.0,493.0,539.0,543.0,77.1,76.85
4,1555413308.583746,481.0,385.0,539.0,543.0,101.15,96.1
5,1555413308.6465082,545.0,442.0,545.0,543.0,128.4,118.2
6,1555413308.7097723,456.0,519.0,545.0,543.0,151.2,144.15
7,1555413308.7723095,561.0,498.0,561.0,543.0,179.25,169.05
8,1555413308.8385022,559.0,538.0,561.0,543.0,207.2,195.95
9,1555413308.900553,551.0,571.0,561.0,571.0,234.75,224.5
10,1555413308.9671004,537.0,568.0,561.0,571.0,261.6,252.9
11,1555413309.030986,497.0,576.0,561.0,576.0,286.45,281.7
12,1555413309.103891,570.0,424.0,570.0,576.0,314.95,302.9
13,1555413309.175398,540.0,457.0,570.0,576.0,341.95,325.75
14,1555413309.2399397,518.0,419.0,570.0,576.0,367.85,346.7
15,1555413309.3028352,514.0,397.0,570.0,576.0,393.55,366.55
16,1555413309.3788598,594.0,478.0,594.0,576.0,423.25,390.45
17,1555413309.4422402,619.0,476.0,619.0,576.0,454.2,414.25
18,1555413309.5044632,662.0,609.0,662.0,609.0,487.3,444.7
19,1555413309.5821981,551.0,576.0,662.0,609.0,514.85,473.5
20,1555413309.64534,519.0,486.0,206.0,224.0,540.8,497.8
21,1555413309.715996,536.0,385.0,206.0,224.0,542.6,492.0
22,1555413309.7964425,501.0,453.0,206.0,224.0,542.5,487.5
23,1555413309.8635848,469.0,564.0,206.0,224.0,539.0,491.05
24,1555413309.9264534,389.0,419.0,273.0,224.0,534.4,492.75
25,1555413310.005352,484.0,553.0,273.0,224.0,531.35,498.3
26,1555413310.0808456,468.0,526.0,273.0,224.0,531.95,498.65
27,1555413310.1599777,533.0,494.0,273.0,224.0,530.55,498.45
28,1555413310.2296379,583.0,512.0,273.0,224.0,531.75,497.15
29,1555413310.2970188,543.0,582.0,273.0,224.0,531.35,497.7
30,1555413310.367629,504.0,551.0,273.0,224.0,529.7,496.85
31,1555413310.4366274,511.0,502.0,273.0,224.0,530.4,493.15
32,1555413310.520407,334.0,454.0,328.0,224.0,518.6,494.65
33,1555413310.604861,449.0,541.0,328.0,224.0,514.05,498.85
34,1555413310.678528,425.0,543.0,328.0,224.0,509.4,505.05
35,1555413310.7535746,443.0,666.0,328.0,281.0,505.85,518.5
36,1555413310.8308039,463.0,478.0,328.0,281.0,499.3,518.5
37,1555413310.9121284,477.0,490.0,328.0,281.0,492.2,519.2
38,1555413310.9883776,557.0,592.0,249.0,281.0,486.95,518.35
39,1555413311.0648606,571.0,570.0,249.0,281.0,487.95,518.05
40,1555413311.1328607,592.0,584.0,258.0,281.0,491.6,522.95
41,1555413311.2016127,558.0,570.0,258.0,247.0,492.7,532.2
42,1555413311.272448,554.0,477.0,258.0,247.0,495.35,533.4
43,1555413311.3546588,593.0,358.0,259.0,308.0,501.55,523.1
44,1555413311.4285421,594.0,468.0,260.0,308.0,511.8,525.55
45,1555413311.4963727,604.0,506.0,270.0,308.0,517.8,523.2
46,1555413311.5770686,589.0,591.0,270.0,308.0,523.85,526.45
47,1555413311.6614997,526.0,586.0,270.0,308.0,523.5,531.05
48,1555413311.7337213,515.0,433.0,270.0,308.0,520.1,527.1
49,1555413311.798378,509.0,511.0,270.0,308.0,518.4,523.55
50,1555413311.8722296,476.0,643.0,270.0,308.0,517.0,528.15
51,1555413311.9477172,465.0,522.0,270.0,308.0,514.7,529.15
52,1555413312.0254166,451.0,445.0,179.0,308.0,520.55,528.7
53,1555413312.0916593,429.0,403.0,179.0,308.0,519.55,521.8
54,1555413312.1568158,435.0,492.0,175.0,308.0,520.05,519.25
55,1555413312.2240813,394.0,405.0,210.0,285.0,517.6,506.2
56,1555413312.293306,471.0,478.0,210.0,285.0,518.0,506.2
57,1555413312.361749,501.0,445.0,210.0,285.0,519.2,503.95
58,1555413312.4290705,441.0,438.0,210.0,285.0,513.4,496.25
59,1555413312.4987495,382.0,596.0,222.0,285.0,503.95,497.55
60,1555413312.564595,424.0,668.0,222.0,310.0,495.55,501.75
61,1555413312.629703,441.0,492.0,222.0,310.0,489.7,497.85
62,1555413312.6963875,531.0,642.0,222.0,310.0,488.55,506.1
63,1555413312.7655914,534.0,521.0,222.0,265.0,485.6,514.25
64,1555413312.8349073,562.0,584.0,222.0,265.0,484.0,520.05
65,1555413312.9028163,523.0,485.0,207.0,265.0,479.95,519.0
66,1555413312.9890747,536.0,436.0,180.0,265.0,477.3,511.25
67,1555413313.069094,551.0,331.0,180.0,337.0,478.55,498.5
68,1555413313.141447,444.0,161.0,180.0,507.0,475.0,484.9
69,1555413313.2148423,477.0,396.0,180.0,507.0,473.4,479.15
70,1555413313.2983546,479.0,412.0,180.0,507.0,473.55,467.6
71,1555413313.3746028,478.0,496.0,180.0,507.0,474.2,466.3
72,1555413313.450978,522.0,617.0,180.0,507.0,477.75,474.9
73,1555413313.5201483,527.0,610.0,180.0,507.0,482.65,485.25
74,1555413313.5987458,505.0,563.0,180.0,507.0,486.15,488.8
75,1555413313.676333,506.0,490.0,180.0,507.0,491.75,493.05
76,1555413313.7442005,527.0,486.0,180.0,507.0,494.55,493.45
77,1555413313.8168993,553.0,437.0,180.0,507.0,497.15,493.05
78,1555413313.9018524,517.0,464.0,180.0,507.0,500.95,494.35
79,1555413313.9742472,524.0,459.0,138.0,507.0,508.05,487.5
80,1555413314.0456035,501.0,547.0,121.0,481.0,511.9,481.45
81,1555413314.1154306,465.0,557.0,118.0,481.0,513.1,484.7
82,1555413314.1980984,487.0,599.0,118.0,456.0,510.9,482.55
83,1555413314.2874985,524.0,510.0,118.0,456.0,510.4,482.0
84,1555413314.362097,557.0,461.0,113.0,456.0,510.15,475.85
85,1555413314.4334905,568.0,307.0,124.0,456.0,512.4,466.95
86,1555413314.503314,558.0,290.0,124.0,456.0,513.5,459.65
87,1555413314.5681283,513.0,224.0,124.0,456.0,511.6,454.3
88,1555413314.6505415,470.0,228.0,103.0,393.0,512.9,457.65
89,1555413314.7278135,511.0,302.0,103.0,393.0,514.6,452.95
90,1555413314.7998247,458.0,171.0,110.0,446.0,513.55,440.9
91,1555413314.8827124,480.0,463.0,110.0,446.0,513.65,439.25
92,1555413314.9534962,454.0,399.0,114.0,439.0,510.25,428.35
93,1555413315.0329707,431.0,458.0,137.0,428.0,505.45,420.75
94,1555413315.1159565,462.0,514.0,137.0,428.0,503.3,418.3
95,1555413315.1903415,536.0,796.0,137.0,625.0,504.8,433.6
96,1555413315.2854857,525.0,604.0,137.0,625.0,504.7,439.5
97,1555413315.3680482,454.0,502.0,137.0,625.0,499.75,442.75
98,1555413315.4361246,471.0,481.0,137.0,625.0,497.45,443.6
99,1555413315.5132456,366.0,629.0,202.0,625.0,489.55,452.1
100,1555413315.5870428,415.0,550.0,202.0,625.0,485.25,452.25
101,1555413315.6568573,367.0,606.0,202.0,625.0,480.35,454.7
102,1555413315.7487495,503.0,1022.0,202.0,851.0,481.15,475.85
103,1555413315.8219123,435.0,688.0,202.0,851.0,476.7,484.75
104,1555413315.9026215,527.0,546.0,202.0,851.0,475.2,489.0
105,1555413315.9853532,678.0,476.0,312.0,851.0,480.7,497.45
106,1555413316.0528545,483.0,325.0,312.0,851.0,476.95,499.2
107,1555413316.1363637,427.0,438.0,312.0,851.0,472.65,509.9
108,1555413316.21162,531.0,423.0,312.0,851.0,475.7,519.65
109,1555413316.2889628,599.0,427.0,312.0,851.0,480.1,525.9
110,1555413316.3652098,471.0,478.0,312.0,697.0,480.75,541.25
111,1555413316.4439466,525.0,580.0,312.0,697.0,483.0,547.1
112,1555413316.519187,473.0,389.0,312.0,697.0,483.95,546.6
113,1555413316.59388,476.0,531.0,312.0,697.0,486.2,550.25
114,1555413316.6746333,596.0,941.0,312.0,697.0,492.9,571.6
115,1555413316.751457,507.0,493.0,312.0,697.0,491.45,556.45
116,1555413316.8326237,499.0,482.0,312.0,697.0,490.15,550.35
117,1555413316.9023504,592.0,274.0,312.0,748.0,497.05,538.95
118,1555413316.9706173,493.0,734.0,312.0,748.0,498.15,551.6
119,1555413317.0386872,427.0,521.0,311.0,748.0,501.2,546.2
120,1555413317.1095328,422.0,715.0,311.0,748.0,501.55,554.45
121,1555413317.1745946,592.0,644.0,256.0,748.0,512.8,556.35
122,1555413317.2420597,544.0,660.0,256.0,667.0,514.85,538.25
123,1555413317.3084226,488.0,508.0,256.0,667.0,517.5,529.25
124,1555413317.3808463,523.0,512.0,256.0,667.0,517.3,527.55
125,1555413317.4497857,558.0,578.0,177.0,667.0,511.3,532.65
126,1555413317.5190043,464.0,372.0,177.0,667.0,510.35,535.0
127,1555413317.5932052,568.0,283.0,177.0,667.0,517.4,527.25
128,1555413317.6709888,581.0,635.0,177.0,667.0,519.9,537.85
129,1555413317.7518806,565.0,380.0,174.0,667.0,518.2,535.5
130,1555413317.835172,557.0,347.0,174.0,667.0,522.5,528.95
131,1555413317.9109008,542.0,787.0,174.0,667.0,523.35,539.3
132,1555413317.9859812,509.0,478.0,174.0,667.0,525.15,543.75
133,1555413318.058684,391.0,542.0,205.0,667.0,520.9,544.3
134,1555413318.1320322,422.0,343.0,201.0,513.0,512.2,514.4
135,1555413318.2154431,467.0,201.0,201.0,586.0,510.2,499.8
136,1555413318.292048,531.0,488.0,201.0,586.0,511.8,500.1
137,1555413318.3589952,470.0,481.0,201.0,586.0,505.7,510.45
138,1555413318.4275427,543.0,824.0,201.0,623.0,508.2,514.95
139,1555413318.5171824,537.0,538.0,201.0,623.0,513.7,515.8
140,1555413318.591093,494.0,486.0,201.0,623.0,517.3,504.35
141,1555413318.6576467,481.0,747.0,190.0,623.0,511.75,509.5
142,1555413318.7418575,599.0,619.0,208.0,623.0,514.5,507.45
143,1555413318.823563,628.0,487.0,237.0,623.0,521.5,506.4
144,1555413318.9009032,583.0,372.0,237.0,623.0,524.5,499.4
145,1555413318.9800594,556.0,326.0,237.0,623.0,524.4,486.8
146,1555413319.0534964,542.0,561.0,237.0,623.0,528.3,496.25
147,1555413319.1467755,565.0,512.0,237.0,623.0,528.15,507.7
148,1555413319.2413936,499.0,524.0,237.0,623.0,524.05,502.15
149,1555413319.3296719,519.0,453.0,237.0,623.0,521.75,505.8
150,1555413319.4014943,355.0,441.0,273.0,623.0,511.65,510.5
151,1555413319.474298,477.0,482.0,273.0,623.0,508.4,495.25
152,1555413319.5445352,507.0,305.0,273.0,623.0,508.3,486.6
153,1555413319.611263,599.0,418.0,273.0,623.0,518.7,480.4
154,1555413319.6791723,574.0,494.0,273.0,623.0,526.3,487.95
155,1555413319.7519126,537.0,463.0,273.0,519.0,529.8,501.05
156,1555413319.8224,472.0,485.0,273.0,519.0,526.85,500.9
157,1555413319.8999636,548.0,891.0,273.0,586.0,530.75,521.4
158,1555413319.9761844,603.0,836.0,273.0,586.0,533.75,522.0
159,1555413320.0662475,429.0,675.0,273.0,586.0,528.35,528.85
160,1555413320.140228,407.0,484.0,273.0,586.0,524.0,528.75
161,1555413320.2067003,617.0,432.0,273.0,586.0,530.8,513.0
162,1555413320.273221,653.0,208.0,298.0,683.0,533.5,492.45
163,1555413320.345374,547.0,547.0,298.0,683.0,529.45,495.45
164,1555413320.415172,497.0,726.0,298.0,683.0,525.15,513.15
165,1555413320.486502,550.0,842.0,298.0,683.0,524.85,538.95
166,1555413320.5724113,512.0,494.0,298.0,683.0,523.35,535.6
167,1555413320.6395285,354.0,696.0,299.0,683.0,512.8,544.8
168,1555413320.7133074,441.0,404.0,299.0,683.0,509.9,538.8
169,1555413320.7895923,514.0,415.0,299.0,683.0,509.65,536.9
170,1555413320.8630612,623.0,446.0,299.0,683.0,523.05,537.15
171,1555413320.93975,653.0,338.0,299.0,683.0,531.85,529.95
172,1555413321.0183039,538.0,399.0,299.0,683.0,533.4,534.65
173,1555413321.0982091,502.0,397.0,299.0,683.0,528.55,533.6
174,1555413321.1754649,474.0,512.0,299.0,683.0,523.55,534.5
175,1555413321.2509735,508.0,583.0,299.0,683.0,522.1,540.5
176,1555413321.320878,451.0,541.0,299.0,683.0,521.05,543.3
177,1555413321.3870132,463.0,708.0,299.0,634.0,516.8,534.15
178,1555413321.4593284,573.0,509.0,299.0,634.0,515.3,517.8
179,1555413321.5421739,604.0,332.0,299.0,634.0,524.05,500.65
180,1555413321.637517,503.0,247.0,299.0,634.0,528.85,488.8
181,1555413321.7136264,512.0,484.0,299.0,634.0,523.6,491.4
182,1555413321.7978017,473.0,491.0,299.0,595.0,514.6,505.55
183,1555413321.89424,449.0,575.0,299.0,595.0,509.7,506.95
184,1555413321.9760633,431.0,653.0,299.0,595.0,506.4,503.3
185,1555413322.0472467,475.0,555.0,299.0,461.0,502.65,488.95
186,1555413322.1159425,520.0,419.0,299.0,461.0,503.05,485.2
187,1555413322.186781,588.0,386.0,222.0,461.0,514.75,469.7
188,1555413322.25778,564.0,424.0,222.0,461.0,520.9,470.7
189,1555413322.3278544,416.0,479.0,237.0,461.0,516.0,473.9
190,1555413322.4024355,387.0,499.0,266.0,461.0,504.2,476.55
191,1555413322.4761658,435.0,669.0,217.0,461.0,493.3,493.1
192,1555413322.5590253,517.0,561.0,217.0,461.0,492.25,501.2
193,1555413322.6365023,496.0,672.0,217.0,461.0,491.95,514.95
194,1555413322.7115452,390.0,507.0,217.0,461.0,487.75,514.7
195,1555413322.7893093,401.0,547.0,217.0,461.0,482.4,512.9
196,1555413322.8654156,514.0,418.0,217.0,461.0,485.55,506.75
197,1555413322.945014,543.0,700.0,217.0,453.0,489.55,506.35
198,1555413323.022651,547.0,742.0,217.0,495.0,488.25,518.0
199,1555413323.1073527,524.0,511.0,201.0,495.0,484.25,526.95
200,1555413323.1856267,549.0,613.0,201.0,356.0,486.55,545.25
201,1555413323.2672615,445.0,552.0,201.0,356.0,483.2,548.65
202,1555413323.3387125,477.0,531.0,201.0,356.0,483.4,550.65
203,1555413323.4170704,476.0,462.0,201.0,356.0,484.75,545.0
204,1555413323.5046477,486.0,616.0,201.0,356.0,487.5,543.15
205,1555413323.5802615,514.0,327.0,201.0,415.0,489.45,531.75
206,1555413323.65892,542.0,240.0,201.0,502.0,490.55,522.8
207,1555413323.74333,396.0,267.0,177.0,502.0,480.95,516.85
208,1555413323.833583,430.0,696.0,162.0,502.0,474.25,530.45
209,1555413323.9137104,515.0,696.0,162.0,502.0,479.2,541.3
210,1555413323.9934974,485.0,722.0,159.0,502.0,484.1,552.45
211,1555413324.070025,544.0,492.0,159.0,502.0,489.55,543.6
212,1555413324.1439903,554.0,246.0,164.0,502.0,491.4,527.85
213,1555413324.218732,481.0,142.0,164.0,600.0,490.65,501.35
214,1555413324.2972288,481.0,142.0,158.0,600.0,495.2,483.1
215,1555413324.3755398,481.0,142.0,158.0,600.0,499.2,462.85
216,1555413324.4476447,522.0,433.0,158.0,600.0,499.6,463.6
217,1555413324.5320728,477.0,383.0,158.0,600.0,496.3,447.75
218,1555413324.624165,538.0,338.0,158.0,580.0,495.85,427.55
219,1555413324.6975868,553.0,548.0,158.0,580.0,497.3,429.4
220,1555413324.7665136,490.0,369.0,158.0,580.0,494.35,417.2
221,1555413324.8364828,477.0,451.0,158.0,580.0,495.95,412.15
222,1555413324.9148893,455.0,545.0,158.0,580.0,494.85,412.85
223,1555413324.9823875,490.0,416.0,158.0,580.0,495.55,410.55
224,1555413325.0499616,489.0,440.0,158.0,580.0,495.7,401.75
225,1555413325.1193197,482.0,422.0,158.0,580.0,494.1,406.5
226,1555413325.198107,475.0,445.0,158.0,580.0,490.75,416.75
227,1555413325.27335,489.0,463.0,124.0,580.0,495.4,426.55
228,1555413325.3468187,514.0,393.0,99.0,580.0,499.6,411.4
229,1555413325.431686,512.0,405.0,99.0,580.0,499.45,396.85
230,1555413325.5162268,488.0,632.0,99.0,490.0,499.6,392.35
231,1555413325.600425,472.0,340.0,99.0,490.0,496.0,384.75
232,1555413325.6725066,500.0,512.0,98.0,490.0,493.3,398.05
233,1555413325.7472007,504.0,553.0,98.0,490.0,494.45,418.6
234,1555413325.8479147,584.0,464.0,129.0,490.0,499.6,434.7
235,1555413325.9408977,543.0,400.0,129.0,294.0,502.7,447.6
236,1555413326.0243425,613.0,434.0,158.0,294.0,507.25,447.65
237,1555413326.098852,541.0,541.0,158.0,294.0,510.45,455.55
238,1555413326.1797557,461.0,485.0,158.0,292.0,506.6,462.9
239,1555413326.252305,451.0,619.0,162.0,292.0,501.5,466.45
240,1555413326.3367512,506.0,383.0,162.0,292.0,502.3,467.15
241,1555413326.4106505,498.0,404.0,162.0,292.0,503.35,464.8
242,1555413326.4888787,555.0,543.0,162.0,292.0,508.35,464.7
243,1555413326.5641468,477.0,555.0,162.0,292.0,507.7,471.65
244,1555413326.6458173,557.0,512.0,162.0,292.0,511.1,475.25
245,1555413326.7322965,565.0,556.0,162.0,292.0,515.25,481.95
246,1555413326.8377664,508.0,611.0,162.0,292.0,516.9,490.25
247,1555413326.921662,512.0,507.0,162.0,292.0,518.05,492.45
248,1555413326.9949138,574.0,688.0,162.0,348.0,521.05,507.2
249,1555413327.0678675,503.0,415.0,162.0,348.0,520.6,507.7
250,1555413327.137259,480.0,548.0,162.0,348.0,520.2,503.5
251,1555413327.2095177,561.0,723.0,162.0,340.0,524.65,522.65
252,1555413327.2926319,490.0,488.0,162.0,340.0,524.15,521.45
253,1555413327.363327,527.0,584.0,162.0,340.0,525.3,523.0
254,1555413327.4293046,517.0,467.0,162.0,340.0,521.95,523.15
255,1555413327.513699,555.0,499.0,162.0,340.0,522.55,528.1
256,1555413327.5957618,458.0,342.0,123.0,381.0,514.8,523.5
257,1555413327.6789548,512.0,650.0,123.0,381.0,513.35,528.95
258,1555413327.757203,506.0,494.0,123.0,381.0,515.6,529.4
259,1555413327.833288,526.0,320.0,116.0,403.0,519.35,514.45
260,1555413327.9078453,512.0,483.0,116.0,403.0,519.65,519.45
261,1555413327.9875362,533.0,535.0,116.0,403.0,521.4,526.0
262,1555413328.0686464,554.0,607.0,116.0,403.0,521.35,529.2
263,1555413328.1443493,496.0,541.0,116.0,403.0,522.3,528.5
264,1555413328.2364647,541.0,682.0,116.0,403.0,521.5,537.0
265,1555413328.3208225,515.0,471.0,116.0,403.0,519.0,532.75
266,1555413328.3961759,543.0,614.0,116.0,403.0,520.75,532.9
267,1555413328.4880655,501.0,477.0,116.0,403.0,520.2,531.4
268,1555413328.5639372,473.0,321.0,103.0,403.0,515.15,513.05
269,1555413328.6359653,464.0,443.0,103.0,403.0,513.2,514.45
270,1555413328.7190053,504.0,330.0,103.0,403.0,514.4,503.55
271,1555413328.8086839,537.0,289.0,97.0,393.0,513.2,481.85
272,1555413328.8886256,576.0,379.0,118.0,393.0,517.5,476.4
273,1555413328.967191,498.0,458.0,118.0,393.0,516.05,470.1
274,1555413329.037302,439.0,300.0,137.0,393.0,512.15,461.75
275,1555413329.112778,448.0,592.0,137.0,393.0,506.8,466.4
276,1555413329.1904006,508.0,768.0,137.0,479.0,509.3,487.7
277,1555413329.2690346,475.0,560.0,137.0,479.0,507.45,483.2
278,1555413329.3457978,491.0,564.0,137.0,479.0,506.7,486.7
279,1555413329.4315975,584.0,733.0,145.0,479.0,509.6,507.35
280,1555413329.5034308,616.0,541.0,177.0,479.0,514.8,510.25
281,1555413329.5885866,553.0,568.0,177.0,479.0,515.8,511.9
282,1555413329.6626952,550.0,921.0,177.0,632.0,515.6,527.6
283,1555413329.7581587,412.0,696.0,204.0,632.0,511.4,535.35
284,1555413329.8435678,438.0,751.0,204.0,632.0,506.25,538.8
285,1555413329.9207754,480.0,464.0,204.0,632.0,504.5,538.45
286,1555413329.9922543,464.0,441.0,204.0,632.0,500.55,529.8
287,1555413330.0779216,481.0,350.0,204.0,632.0,499.55,523.45
288,1555413330.1705174,441.0,139.0,204.0,782.0,497.95,514.35
289,1555413330.2602031,475.0,418.0,204.0,782.0,498.5,513.1
290,1555413330.3385262,501.0,41.0,204.0,880.0,498.35,498.65
291,1555413330.4314198,473.0,235.0,204.0,880.0,495.15,495.95
292,1555413330.5064187,535.0,339.0,204.0,880.0,493.1,493.95
293,1555413330.5806973,518.0,587.0,204.0,880.0,494.1,500.4
294,1555413330.6605558,467.0,452.0,204.0,880.0,495.5,508.0
295,1555413330.7354672,467.0,458.0,204.0,880.0,496.45,501.3
296,1555413330.809087,448.0,625.0,204.0,880.0,493.45,494.15
297,1555413330.877882,465.0,566.0,204.0,880.0,492.95,494.45
298,1555413330.9675794,506.0,432.0,204.0,880.0,493.7,487.85
299,1555413331.0445602,402.0,434.0,214.0,880.0,484.6,472.9
300,1555413331.1224923,562.0,416.0,160.0,880.0,481.9,466.65
301,1555413331.2078507,588.0,319.0,186.0,880.0,483.65,454.2
302,1555413331.279974,559.0,259.0,186.0,710.0,484.1,421.1
303,1555413331.3542957,509.0,399.0,186.0,710.0,488.95,406.25
304,1555413331.4325957,355.0,133.0,233.0,584.0,484.8,375.35
305,1555413331.511724,338.0,744.0,250.0,703.0,477.7,389.35
306,1555413331.5837145,419.0,906.0,250.0,865.0,475.45,412.6
307,1555413331.6510742,565.0,362.0,250.0,865.0,479.65,413.2
308,1555413331.7324533,843.0,977.0,505.0,936.0,499.75,455.1
309,1555413331.8230567,692.0,407.0,505.0,936.0,510.6,454.55
310,1555413331.8912752,584.0,297.0,505.0,844.0,514.75,467.35
311,1555413331.9602609,517.0,367.0,505.0,844.0,516.95,473.95
312,1555413332.0340016,567.0,209.0,505.0,844.0,518.55,467.45
313,1555413332.1158948,556.0,647.0,505.0,844.0,520.45,470.45
314,1555413332.1898844,493.0,1022.0,505.0,889.0,521.75,498.95
315,1555413332.2603285,495.0,959.0,505.0,889.0,523.15,524.0
316,1555413332.3329828,509.0,865.0,505.0,889.0,526.2,536.0
317,1555413332.4133952,420.0,469.0,505.0,889.0,523.95,531.15
318,1555413332.4828389,450.0,375.0,505.0,889.0,521.15,528.3
319,1555413332.5728548,616.0,433.0,505.0,889.0,531.85,528.25
320,1555413332.6511137,651.0,303.0,505.0,889.0,536.3,522.6
321,1555413332.73052,882.0,350.0,544.0,889.0,551.0,524.15
322,1555413332.8057964,947.0,101.0,609.0,921.0,570.4,516.25
323,1555413332.8891587,774.0,419.0,609.0,921.0,583.65,517.25
324,1555413332.958842,275.0,880.0,672.0,921.0,579.65,554.6
325,1555413333.045147,370.0,928.0,672.0,921.0,581.25,563.8
326,1555413333.122396,610.0,1023.0,672.0,922.0,590.8,569.65
327,1555413333.1942282,601.0,1023.0,672.0,922.0,592.6,602.7
328,1555413333.2616427,423.0,1022.0,672.0,922.0,571.6,604.95
329,1555413333.3325012,214.0,985.0,733.0,922.0,547.7,633.85
330,1555413333.4091866,323.0,714.0,733.0,922.0,534.65,654.7
331,1555413333.4829736,237.0,330.0,733.0,922.0,520.65,652.85
332,1555413333.5594342,540.0,303.0,733.0,922.0,519.3,657.55
333,1555413333.6429894,627.0,201.0,733.0,922.0,522.85,635.25
334,1555413333.7088952,589.0,507.0,733.0,922.0,527.65,609.5
335,1555413333.7810066,671.0,580.0,733.0,922.0,536.45,590.55
336,1555413333.8642378,586.0,853.0,733.0,922.0,540.3,589.95
337,1555413333.9392557,404.0,395.0,733.0,922.0,539.5,586.25
338,1555413334.0139616,320.0,299.0,733.0,922.0,533.0,582.45
339,1555413334.0919156,546.0,349.0,733.0,922.0,529.5,578.25
340,1555413334.1713119,508.0,1016.0,733.0,922.0,522.35,613.9
341,1555413334.2572048,608.0,1007.0,733.0,922.0,508.65,646.75
342,1555413334.338519,467.0,1023.0,560.0,822.0,484.65,692.85
343,1555413334.4182675,642.0,826.0,457.0,822.0,478.05,713.2
344,1555413334.4944625,601.0,124.0,457.0,899.0,494.35,675.4
345,1555413334.5633004,548.0,612.0,457.0,899.0,503.25,659.6
346,1555413334.654145,671.0,701.0,457.0,899.0,506.3,643.5
347,1555413334.7316067,618.0,149.0,457.0,899.0,507.15,599.8
348,1555413334.8126082,500.0,214.0,457.0,899.0,511.0,559.4
349,1555413334.8848958,498.0,410.0,434.0,899.0,525.2,530.65
350,1555413334.9593108,400.0,604.0,434.0,899.0,529.05,525.15
351,1555413335.0330575,433.0,214.0,351.0,899.0,538.85,519.35
352,1555413335.1120956,412.0,367.0,351.0,899.0,532.45,522.55
353,1555413335.1903136,500.0,1.0,351.0,1022.0,526.1,512.55
354,1555413335.2675056,504.0,0.0,351.0,1023.0,521.85,487.2
355,1555413335.345675,453.0,0.0,351.0,1023.0,510.95,458.2
356,1555413335.4253914,587.0,63.0,351.0,1023.0,511.0,418.7
357,1555413335.5111785,445.0,147.0,351.0,1023.0,513.05,406.3
358,1555413335.5956783,402.0,2.0,271.0,1023.0,517.15,391.45
359,1555413335.6817684,376.0,344.0,295.0,1023.0,508.65,391.2
360,1555413335.7489712,416.0,360.0,295.0,1023.0,504.05,358.4
361,1555413335.818174,366.0,456.0,305.0,1023.0,491.95,330.85
362,1555413335.8945875,344.0,528.0,327.0,826.0,485.8,306.1
363,1555413335.9712381,540.0,369.0,327.0,701.0,480.7,283.25
364,1555413336.0529406,641.0,528.0,327.0,701.0,482.7,303.45
365,1555413336.1345277,509.0,557.0,327.0,701.0,480.75,300.7
366,1555413336.2193189,485.0,548.0,297.0,604.0,471.45,293.05
367,1555413336.2972896,450.0,371.0,297.0,604.0,463.05,304.15
368,1555413336.3688364,403.0,506.0,297.0,604.0,458.2,318.75
369,1555413336.452892,448.0,562.0,297.0,604.0,455.7,326.35
370,1555413336.5211396,471.0,642.0,297.0,642.0,459.25,328.25
371,1555413336.591804,418.0,389.0,297.0,642.0,458.5,337.0
372,1555413336.6624434,587.0,540.0,297.0,642.0,467.25,345.65
373,1555413336.7464395,565.0,469.0,297.0,642.0,470.5,369.05
374,1555413336.8182075,692.0,718.0,348.0,718.0,479.9,404.95
375,1555413336.9075153,494.0,370.0,348.0,716.0,481.95,423.45
376,1555413336.9835367,491.0,294.0,348.0,716.0,477.15,435.0
377,1555413337.0597017,558.0,1021.0,348.0,1019.0,482.8,478.7
378,1555413337.1331813,449.0,603.0,348.0,727.0,485.15,508.75
379,1555413337.225584,503.0,427.0,348.0,727.0,491.5,512.9
380,1555413337.2933478,607.0,550.0,348.0,727.0,501.05,522.4
381,1555413337.3782907,510.0,502.0,348.0,727.0,508.25,524.7
382,1555413337.4582005,469.0,141.0,289.0,880.0,514.5,505.35
383,1555413337.5455475,511.0,519.0,289.0,880.0,513.05,512.85
384,1555413337.6620998,513.0,556.0,289.0,880.0,506.65,514.25
385,1555413337.7376738,472.0,797.0,289.0,880.0,504.8,526.25
386,1555413337.818167,438.0,526.0,289.0,880.0,502.45,525.15
387,1555413337.8858063,463.0,588.0,289.0,880.0,503.1,536.0
388,1555413337.9613495,549.0,193.0,274.0,880.0,510.4,520.35
389,1555413338.0397172,570.0,518.0,274.0,880.0,516.5,518.15
390,1555413338.123474,524.0,194.0,274.0,880.0,519.15,495.75
391,1555413338.2108564,540.0,467.0,254.0,880.0,525.25,499.65
392,1555413338.3011067,582.0,267.0,254.0,880.0,525.0,486.0
393,1555413338.3726137,472.0,609.0,254.0,880.0,520.35,493.0
394,1555413338.4605937,504.0,597.0,169.0,880.0,510.95,486.95
395,1555413338.5372245,561.0,701.0,169.0,880.0,514.3,503.5
396,1555413338.6216636,601.0,443.0,169.0,880.0,519.8,510.95
397,1555413338.703746,604.0,357.0,169.0,656.0,522.1,477.75
398,1555413338.769497,529.0,685.0,169.0,656.0,526.1,481.85
399,1555413338.8418386,378.0,434.0,229.0,656.0,519.85,482.2
400,1555413338.9101493,490.0,196.0,226.0,656.0,514.0,464.5
401,1555413338.9829392,524.0,258.0,226.0,656.0,514.7,452.3
402,1555413339.056575,580.0,716.0,226.0,604.0,520.25,481.05
403,1555413339.1351712,572.0,345.0,226.0,604.0,523.3,472.35
404,1555413339.212914,513.0,951.0,226.0,758.0,523.3,492.1
405,1555413339.2963605,515.0,376.0,226.0,758.0,525.45,471.05
406,1555413339.3669324,544.0,557.0,226.0,758.0,530.75,472.6
407,1555413339.4363961,463.0,431.0,226.0,758.0,530.75,464.75
408,1555413339.5153842,494.0,249.0,226.0,757.0,528.0,467.55
409,1555413339.58928,520.0,312.0,226.0,757.0,525.5,457.25
410,1555413339.6673028,513.0,327.0,226.0,755.0,524.95,463.9
411,1555413339.7466302,489.0,341.0,226.0,755.0,522.4,457.6
412,1555413339.8194456,561.0,700.0,226.0,755.0,521.35,479.25
413,1555413339.8912063,545.0,601.0,226.0,755.0,525.0,478.85
414,1555413339.9579985,583.0,556.0,226.0,755.0,528.95,476.8
415,1555413340.0297906,533.0,295.0,226.0,755.0,527.55,456.5
416,1555413340.1031618,491.0,429.0,226.0,755.0,522.05,455.8
417,1555413340.171698,445.0,366.0,205.0,755.0,514.1,456.25
418,1555413340.2457044,456.0,455.0,205.0,755.0,510.45,444.75
419,1555413340.333514,478.0,511.0,138.0,755.0,515.45,448.6
420,1555413340.417284,482.0,539.0,138.0,702.0,515.05,465.75
421,1555413340.4903264,500.0,552.0,138.0,702.0,513.85,480.45
422,1555413340.5561943,514.0,481.0,138.0,702.0,510.55,468.7
423,1555413340.6291716,502.0,503.0,138.0,702.0,507.05,476.6
424,1555413340.7025626,530.0,584.0,138.0,451.0,507.9,458.25
425,1555413340.7935886,507.0,573.0,138.0,451.0,507.5,468.1
426,1555413340.8686733,512.0,591.0,138.0,451.0,505.9,469.8
427,1555413340.9472497,523.0,559.0,138.0,451.0,508.9,476.2
428,1555413341.0135803,449.0,639.0,138.0,405.0,506.65,495.7
429,1555413341.0814307,537.0,465.0,138.0,405.0,507.5,503.35
430,1555413341.1680472,507.0,460.0,138.0,405.0,507.2,510.0
431,1555413341.2422273,522.0,566.0,138.0,405.0,508.85,521.25
432,1555413341.3436842,527.0,489.0,138.0,344.0,507.15,510.7
433,1555413341.430793,509.0,484.0,138.0,344.0,505.35,504.85
434,1555413341.5080907,497.0,475.0,92.0,344.0,501.05,500.8
435,1555413341.5750544,497.0,475.0,92.0,273.0,499.25,509.8
436,1555413341.6574667,508.0,635.0,92.0,273.0,500.1,520.1
437,1555413341.7475164,480.0,586.0,88.0,184.0,501.85,531.1
438,1555413341.83775,482.0,556.0,88.0,179.0,503.15,536.15
439,1555413341.9232662,513.0,523.0,88.0,179.0,504.9,536.75
440,1555413341.9927235,492.0,528.0,88.0,179.0,505.4,536.2
441,1555413342.0774846,489.0,492.0,88.0,179.0,504.85,533.2
442,1555413342.1525884,544.0,465.0,95.0,179.0,506.35,532.4
443,1555413342.2296734,533.0,423.0,95.0,216.0,507.9,528.4
444,1555413342.3058715,538.0,632.0,95.0,216.0,508.3,530.8
445,1555413342.3891985,528.0,368.0,95.0,271.0,509.35,520.55
446,1555413342.464968,525.0,461.0,95.0,271.0,510.0,514.05
447,1555413342.5434225,531.0,551.0,95.0,271.0,510.4,513.65
448,1555413342.611313,484.0,469.0,64.0,267.0,512.15,505.15
449,1555413342.690596,578.0,533.0,98.0,267.0,514.2,508.55
450,1555413342.7613213,521.0,362.0,98.0,273.0,514.9,503.65
451,1555413342.8373952,562.0,603.0,98.0,273.0,516.9,505.5
452,1555413342.9127493,442.0,592.0,136.0,273.0,512.65,510.65
453,1555413343.002287,446.0,668.0,136.0,306.0,509.5,519.85
454,1555413343.078351,467.0,431.0,136.0,306.0,508.0,517.65
455,1555413343.153202,526.0,920.0,136.0,558.0,509.45,539.9
456,1555413343.227085,508.0,439.0,136.0,558.0,509.45,530.1
457,1555413343.3017945,436.0,424.0,142.0,558.0,507.25,522.0
458,1555413343.3830614,481.0,343.0,142.0,577.0,507.2,511.35
459,1555413343.4544637,423.0,589.0,155.0,577.0,502.7,514.65
460,1555413343.5273929,501.0,655.0,155.0,577.0,503.15,521.0
461,1555413343.5952852,496.0,583.0,155.0,577.0,503.5,525.55
462,1555413343.661725,507.0,569.0,155.0,577.0,501.65,530.75
463,1555413343.734191,471.0,427.0,155.0,577.0,498.55,530.95
464,1555413343.803448,527.0,470.0,155.0,577.0,498.0,522.85
465,1555413343.8845901,487.0,386.0,155.0,577.0,495.95,523.75
466,1555413343.9566398,492.0,563.0,155.0,577.0,494.3,528.85
467,1555413344.0230832,520.0,516.0,155.0,577.0,493.75,527.1
468,1555413344.102862,418.0,493.0,160.0,577.0,490.45,528.3
469,1555413344.189365,566.0,620.0,148.0,577.0,489.85,532.65
470,1555413344.273303,569.0,794.0,151.0,577.0,492.25,554.25
471,1555413344.3522916,602.0,689.0,184.0,577.0,494.25,558.55
472,1555413344.432294,546.0,763.0,184.0,577.0,499.45,567.1
473,1555413344.5089378,579.0,493.0,184.0,577.0,506.1,558.35
474,1555413344.5866203,518.0,335.0,184.0,585.0,508.65,553.55
475,1555413344.6597028,488.0,431.0,184.0,459.0,506.75,529.1
476,1555413344.739871,464.0,430.0,184.0,459.0,504.55,528.65
477,1555413344.820552,550.0,567.0,184.0,459.0,510.25,535.8
478,1555413344.8910997,566.0,148.0,184.0,646.0,514.5,526.05
479,1555413344.9707663,624.0,164.0,206.0,646.0,524.55,504.8
480,1555413345.0470612,577.0,528.0,206.0,646.0,528.35,498.45
481,1555413345.1259131,478.0,353.0,206.0,646.0,527.45,486.95
482,1555413345.2103686,506.0,72.0,206.0,722.0,527.4,462.1
483,1555413345.2868679,529.0,1022.0,206.0,950.0,530.3,491.85
484,1555413345.3579872,371.0,1022.0,253.0,950.0,522.5,519.45
485,1555413345.4291184,468.0,4.0,253.0,1018.0,521.55,500.35
486,1555413345.5088317,534.0,136.0,253.0,1018.0,523.65,479.0
487,1555413345.5880966,736.0,0.0,365.0,1022.0,534.45,453.2
488,1555413345.6875627,529.0,4.0,365.0,1022.0,540.0,428.75
489,1555413345.759967,492.0,0.0,365.0,1022.0,536.3,397.75
490,1555413345.8288167,548.0,334.0,365.0,1022.0,535.25,374.75
491,1555413345.914513,464.0,798.0,365.0,1022.0,528.35,380.2
492,1555413345.980392,457.0,1015.0,365.0,1022.0,523.9,392.8
493,1555413346.0648034,499.0,1022.0,365.0,1022.0,519.9,419.25
494,1555413346.1367962,471.0,676.0,365.0,1022.0,517.55,436.3
495,1555413346.2112873,442.0,0.0,365.0,1022.0,515.25,414.75
496,1555413346.3005924,442.0,89.0,365.0,1022.0,514.15,397.7
497,1555413346.3730268,494.0,193.0,365.0,1022.0,511.35,379.0
498,1555413346.4600544,507.0,239.0,365.0,1022.0,508.4,383.55
499,1555413346.5457702,596.0,515.0,365.0,1022.0,507.0,401.1
500,1555413346.6279562,615.0,413.0,365.0,1022.0,508.9,395.35
501,1555413346.7082827,572.0,545.0,365.0,1022.0,513.6,404.95
502,1555413346.7818003,506.0,485.0,365.0,1022.0,513.6,425.6
503,1555413346.8632777,514.0,709.0,365.0,1022.0,512.85,409.95
504,1555413346.9396818,435.0,712.0,301.0,1022.0,516.05,394.45
505,1555413347.0157945,289.0,956.0,447.0,1022.0,507.1,442.05
506,1555413347.0901904,297.0,997.0,447.0,1022.0,495.25,485.1
507,1555413347.1579497,276.0,855.0,339.0,1022.0,472.25,527.85
508,1555413347.226843,367.0,820.0,339.0,1022.0,464.15,568.65
509,1555413347.299501,453.0,715.0,339.0,1022.0,462.2,604.4
510,1555413347.3861299,447.0,661.0,339.0,1022.0,457.15,620.75
511,1555413347.4631164,506.0,652.0,339.0,1022.0,459.25,613.45
512,1555413347.5297325,414.0,421.0,339.0,1022.0,457.1,583.75
513,1555413347.5981245,618.0,653.0,342.0,997.0,463.05,565.3
514,1555413347.6760762,540.0,654.0,342.0,997.0,466.5,564.2
515,1555413347.7555673,486.0,520.0,342.0,908.0,468.7,590.2
516,1555413347.835659,511.0,462.0,342.0,804.0,472.15,608.85
517,1555413347.9034667,516.0,400.0,342.0,758.0,473.25,619.2
518,1555413347.9753566,526.0,457.0,342.0,597.0,474.2,630.1
519,1555413348.068846,581.0,617.0,342.0,597.0,473.45,635.2
520,1555413348.1446514,563.0,429.0,342.0,597.0,470.85,636.0
521,1555413348.2248664,612.0,641.0,342.0,597.0,472.85,640.8
522,1555413348.3038192,518.0,474.0,342.0,597.0,473.45,640.25
523,1555413348.381823,509.0,620.0,342.0,597.0,473.2,635.8
524,1555413348.4562776,519.0,478.0,342.0,597.0,477.4,624.1
525,1555413348.5371811,459.0,564.0,342.0,597.0,485.9,604.5
526,1555413348.6104805,479.0,491.0,342.0,455.0,495.0,579.2
527,1555413348.69245,519.0,502.0,251.0,420.0,507.15,561.55
528,1555413348.7665908,525.0,494.0,204.0,315.0,515.05,545.25
529,1555413348.8417602,580.0,727.0,204.0,327.0,521.4,545.85
530,1555413348.9162192,517.0,358.0,204.0,369.0,524.9,530.7
531,1555413348.9977138,573.0,350.0,204.0,377.0,528.25,515.6
532,1555413349.0714245,569.0,540.0,159.0,377.0,536.0,521.55
533,1555413349.1501203,530.0,413.0,153.0,377.0,531.6,509.55
534,1555413349.2243593,530.0,413.0,153.0,377.0,531.1,497.5
535,1555413349.3030903,585.0,284.0,153.0,443.0,536.05,485.7
536,1555413349.3756242,613.0,410.0,154.0,443.0,541.15,483.1
537,1555413349.4464684,624.0,196.0,165.0,531.0,546.55,472.9
538,1555413349.5150464,643.0,506.0,184.0,531.0,552.4,475.35
539,1555413349.619187,633.0,641.0,184.0,531.0,555.0,476.55
540,1555413349.6985931,375.0,406.0,268.0,531.0,545.6,475.4
541,1555413349.7728825,320.0,475.0,323.0,531.0,531.0,467.1
542,1555413349.8398328,320.0,475.0,323.0,531.0,521.1,467.15
543,1555413349.9328167,585.0,284.0,323.0,531.0,524.9,450.35
544,1555413350.02081,624.0,196.0,323.0,531.0,530.15,436.25
545,1555413350.091775,643.0,506.0,323.0,531.0,539.35,433.35
546,1555413350.1640265,633.0,641.0,323.0,531.0,547.05,440.85
547,1555413350.233713,524.0,609.0,323.0,531.0,547.3,446.2
548,1555413350.302489,375.0,406.0,323.0,531.0,539.8,441.8
549,1555413350.3775961,332.0,343.0,323.0,445.0,527.4,422.6
550,1555413350.4486573,511.0,549.0,323.0,445.0,527.1,432.15
551,1555413350.5178854,520.0,447.0,323.0,445.0,524.45,437.0
552,1555413350.593096,622.0,584.0,323.0,445.0,527.1,439.2
553,1555413350.6793642,653.0,847.0,333.0,651.0,533.25,460.9
554,1555413350.7591987,651.0,799.0,333.0,651.0,539.3,480.2
555,1555413350.8381343,502.0,797.0,333.0,651.0,535.15,505.85
556,1555413350.931652,367.0,760.0,333.0,651.0,522.85,523.35
557,1555413351.012275,302.0,395.0,351.0,651.0,506.75,533.3
558,1555413351.0796037,375.0,224.0,351.0,651.0,493.35,519.2
559,1555413351.1620524,536.0,329.0,351.0,651.0,488.5,503.6
560,1555413351.238172,645.0,376.0,351.0,651.0,502.0,502.1
561,1555413351.3096266,625.0,768.0,351.0,651.0,517.25,516.75
562,1555413351.3839183,637.0,840.0,351.0,651.0,533.1,535.0
563,1555413351.4517,511.0,352.0,351.0,651.0,529.4,538.4
564,1555413351.5217552,451.0,368.0,351.0,623.0,520.75,547.0
565,1555413351.592485,353.0,425.0,351.0,623.0,506.25,542.95
566,1555413351.6955943,335.0,712.0,351.0,623.0,491.35,546.5
567,1555413351.7802286,371.0,603.0,351.0,623.0,483.7,546.2
568,1555413351.8682344,527.0,615.0,351.0,623.0,491.3,556.65
569,1555413351.9503524,559.0,129.0,351.0,718.0,502.65,545.95
570,1555413352.0212471,591.0,266.0,351.0,718.0,506.65,531.8
571,1555413352.086959,660.0,754.0,358.0,718.0,513.65,547.15
572,1555413352.1640012,460.0,0.0,358.0,847.0,505.55,517.95
573,1555413352.2536979,399.0,0.0,358.0,840.0,492.85,475.6
574,1555413352.327164,489.0,637.0,358.0,840.0,484.75,467.5
575,1555413352.4080362,482.0,784.0,358.0,840.0,483.75,466.85
576,1555413352.502134,447.0,332.0,358.0,840.0,487.75,445.45
577,1555413352.5709498,684.0,1017.0,349.0,1017.0,506.85,476.55
578,1555413352.6407518,617.0,1009.0,349.0,1017.0,518.95,515.8
579,1555413352.7351294,582.0,107.0,349.0,1017.0,521.25,504.7
580,1555413352.8226912,542.0,446.0,349.0,1017.0,516.1,508.2
581,1555413352.9046123,530.0,609.0,349.0,1017.0,511.35,500.25
582,1555413352.9968674,521.0,558.0,349.0,1017.0,505.55,486.15
583,1555413353.0734487,382.0,1019.0,349.0,1019.0,499.1,519.5
584,1555413353.151479,602.0,589.0,349.0,1019.0,506.65,530.55
585,1555413353.2378063,731.0,718.0,396.0,1019.0,525.55,545.2
586,1555413353.3078578,674.0,636.0,360.0,1019.0,542.5,541.4
587,1555413353.3868072,546.0,301.0,349.0,1019.0,551.25,526.3
588,1555413353.4719543,461.0,636.0,349.0,1019.0,547.95,527.35
589,1555413353.5548992,444.0,151.0,349.0,1019.0,542.2,528.45
590,1555413353.63335,427.0,71.0,349.0,1019.0,534.0,518.7
591,1555413353.7068703,426.0,285.0,349.0,1019.0,522.3,495.25
592,1555413353.7933855,458.0,689.0,349.0,1019.0,522.2,529.7
593,1555413353.8748102,348.0,27.0,383.0,992.0,519.65,531.05
594,1555413353.962686,494.0,675.0,383.0,992.0,519.9,532.95
595,1555413354.0411744,488.0,472.0,383.0,992.0,520.2,517.35
596,1555413354.1243918,532.0,230.0,383.0,992.0,524.45,512.25
597,1555413354.1917048,529.0,279.0,383.0,992.0,516.7,475.35
598,1555413354.2665467,459.0,539.0,383.0,992.0,508.8,451.85
599,1555413354.3387456,548.0,630.0,383.0,992.0,507.1,478.0
600,1555413354.4188254,535.0,377.0,383.0,992.0,506.75,474.55
601,1555413354.4915674,416.0,11.0,383.0,1008.0,501.05,444.65
602,1555413354.5739114,386.0,156.0,383.0,1008.0,494.3,424.55
603,1555413354.6466691,441.0,658.0,383.0,707.0,497.25,406.5
604,1555413354.7216148,483.0,338.0,383.0,707.0,491.3,393.95
605,1555413354.7886543,474.0,827.0,326.0,816.0,478.45,399.4
606,1555413354.8648303,540.0,464.0,200.0,816.0,471.75,390.8
607,1555413354.9355435,597.0,960.0,249.0,949.0,474.3,423.75
608,1555413355.0166364,545.0,796.0,249.0,949.0,478.5,431.75
609,1555413355.1118164,583.0,400.0,249.0,949.0,485.45,444.2
610,1555413355.2096417,523.0,270.0,249.0,949.0,490.25,454.15
611,1555413355.2889013,464.0,549.0,249.0,949.0,492.15,467.35
612,1555413355.3576741,414.0,14.0,249.0,949.0,489.95,433.6
613,1555413355.424956,464.0,562.0,211.0,949.0,495.75,460.35
614,1555413355.4972835,460.0,519.0,211.0,949.0,494.05,452.55
615,1555413355.5670066,414.0,442.0,211.0,949.0,490.35,451.05
616,1555413355.635811,476.0,255.0,211.0,949.0,487.55,452.3
617,1555413355.7089095,440.0,167.0,211.0,949.0,483.1,446.7
618,1555413355.779111,565.0,170.0,211.0,949.0,488.4,428.25
619,1555413355.8461602,528.0,299.0,211.0,949.0,487.4,411.7
620,1555413355.9134386,516.0,233.0,211.0,949.0,486.45,404.5
621,1555413356.0013778,466.0,615.0,211.0,946.0,488.95,434.7
622,1555413356.0722992,479.0,383.0,183.0,946.0,493.6,446.05
623,1555413356.157777,427.0,310.0,183.0,946.0,492.9,428.65
624,1555413356.2368722,574.0,523.0,183.0,946.0,497.45,437.9
625,1555413356.315165,548.0,480.0,183.0,946.0,501.15,420.55
626,1555413356.398848,551.0,667.0,183.0,946.0,501.7,430.7
627,1555413356.4763591,550.0,537.0,169.0,782.0,499.35,409.55
628,1555413356.5571597,534.0,576.0,169.0,653.0,498.8,398.55
629,1555413356.6358461,432.0,437.0,160.0,653.0,491.25,400.4
630,1555413356.7172017,420.0,655.0,160.0,653.0,486.1,419.65
631,1555413356.802116,501.0,743.0,160.0,729.0,487.95,429.35
632,1555413356.8735378,617.0,669.0,203.0,576.0,498.1,462.1
633,1555413356.9452946,562.0,485.0,203.0,576.0,503.0,458.25
634,1555413357.0196033,614.0,871.0,203.0,704.0,510.7,475.85
635,1555413357.0991514,515.0,314.0,197.0,704.0,515.75,469.45
636,1555413357.1713712,478.0,666.0,197.0,704.0,515.85,490.0
637,1555413357.250076,379.0,342.0,238.0,701.0,512.8,498.75
638,1555413357.3212798,410.0,233.0,238.0,638.0,505.05,501.9
639,1555413357.4174228,413.0,257.0,238.0,638.0,499.3,499.8
640,1555413357.4984694,441.0,470.0,238.0,638.0,495.55,511.65
641,1555413357.5788589,571.0,349.0,238.0,638.0,500.8,498.35
642,1555413357.6537557,608.0,427.0,238.0,638.0,507.25,500.55
643,1555413357.7311199,561.0,683.0,238.0,638.0,513.95,519.2
644,1555413357.809134,521.0,520.0,238.0,638.0,511.3,519.05
645,1555413357.8938065,527.0,952.0,238.0,719.0,510.25,542.65
646,1555413357.9784563,496.0,403.0,238.0,719.0,507.5,529.45
647,1555413358.064326,470.0,697.0,238.0,719.0,503.5,537.45
648,1555413358.1643136,498.0,540.0,238.0,719.0,501.7,535.65
649,1555413358.2422526,556.0,631.0,238.0,719.0,507.9,545.35
650,1555413358.3144536,489.0,435.0,238.0,719.0,511.35,534.35
651,1555413358.3980315,528.0,254.0,238.0,719.0,512.7,509.9
652,1555413358.463692,551.0,465.0,235.0,719.0,509.4,499.7
653,1555413358.5487442,476.0,383.0,235.0,719.0,505.1,494.6
654,1555413358.627292,479.0,463.0,229.0,719.0,498.35,474.2
655,1555413358.7039156,457.0,468.0,229.0,719.0,495.45,481.9
656,1555413358.7699673,461.0,674.0,229.0,719.0,494.6,482.3
657,1555413358.8574958,617.0,456.0,207.0,719.0,506.5,488.0
658,1555413358.9406185,529.0,458.0,204.0,698.0,512.45,499.25
659,1555413359.0136154,567.0,605.0,176.0,698.0,520.15,516.65
660,1555413359.086608,535.0,410.0,160.0,698.0,524.85,513.65
661,1555413359.1555243,528.0,694.0,160.0,698.0,522.7,530.9
662,1555413359.2356675,536.0,703.0,160.0,698.0,519.1,544.7
663,1555413359.3069544,420.0,595.0,197.0,698.0,512.05,540.3
664,1555413359.378689,475.0,584.0,197.0,698.0,509.75,543.5
665,1555413359.4685886,556.0,507.0,197.0,449.0,511.2,521.25
666,1555413359.5541315,465.0,376.0,197.0,449.0,509.65,519.9
667,1555413359.6375778,542.0,637.0,197.0,449.0,513.25,516.9
668,1555413359.7252467,500.0,544.0,197.0,449.0,513.35,517.1
669,1555413359.8060083,535.0,532.0,197.0,449.0,512.3,512.15
670,1555413359.8952067,523.0,547.0,197.0,449.0,514.0,517.75
671,1555413359.9793894,585.0,323.0,197.0,380.0,516.85,521.2
672,1555413360.0533855,506.0,375.0,197.0,380.0,514.6,516.7
673,1555413360.1332583,468.0,443.0,197.0,380.0,514.2,519.7
674,1555413360.2196147,429.0,291.0,197.0,412.0,511.7,511.1
675,1555413360.291976,484.0,344.0,197.0,412.0,513.05,504.9
676,1555413360.3734775,486.0,469.0,197.0,412.0,514.3,494.65
677,1555413360.45934,503.0,359.0,165.0,412.0,508.6,489.8
678,1555413360.5371509,521.0,416.0,165.0,412.0,508.2,487.7
679,1555413360.6177797,508.0,381.0,165.0,412.0,505.25,476.5
680,1555413360.6914465,518.0,526.0,165.0,412.0,504.4,482.3
681,1555413360.7703915,527.0,453.0,165.0,412.0,504.35,470.25
682,1555413360.837583,548.0,522.0,165.0,346.0,504.95,461.2
683,1555413360.9050884,523.0,426.0,156.0,346.0,510.1,452.75
684,1555413360.9765227,567.0,609.0,156.0,346.0,514.7,454.0
685,1555413361.0519845,528.0,582.0,156.0,346.0,513.3,457.75
686,1555413361.1216805,412.0,570.0,173.0,346.0,510.65,467.45
687,1555413361.212368,477.0,373.0,173.0,318.0,507.4,454.25
688,1555413361.2836616,417.0,379.0,173.0,318.0,503.25,446.0
689,1555413361.3569527,459.0,560.0,173.0,318.0,499.45,447.4
690,1555413361.436273,494.0,596.0,173.0,318.0,498.0,449.85
691,1555413361.5074306,495.0,798.0,155.0,507.0,493.5,473.6
692,1555413361.5745602,516.0,419.0,155.0,507.0,494.0,475.8
693,1555413361.6547208,562.0,512.0,155.0,507.0,498.7,479.25
694,1555413361.747568,489.0,546.0,155.0,454.0,501.7,492.0
695,1555413361.8306296,500.0,465.0,155.0,439.0,502.5,498.05
696,1555413361.911833,502.0,507.0,155.0,439.0,503.3,499.95
697,1555413362.0268896,498.0,416.0,155.0,425.0,503.05,502.8
698,1555413362.0994945,511.0,491.0,155.0,425.0,502.55,506.55
699,1555413362.1810632,565.0,591.0,155.0,425.0,505.4,517.05
700,1555413362.2612364,551.0,798.0,155.0,425.0,507.05,530.65
701,1555413362.3347754,514.0,846.0,155.0,473.0,506.4,550.3
702,1555413362.4109695,431.0,430.0,155.0,473.0,500.55,545.7
703,1555413362.4968061,444.0,296.0,155.0,550.0,496.6,539.2
704,1555413362.5721529,434.0,676.0,153.0,550.0,489.95,542.55
705,1555413362.6565468,515.0,647.0,153.0,550.0,489.3,545.8
706,1555413362.7294972,570.0,646.0,153.0,550.0,497.2,549.6
707,1555413362.8072803,557.0,354.0,153.0,550.0,501.2,548.65
708,1555413362.883297,624.0,471.0,193.0,550.0,511.55,553.25
709,1555413362.9640164,586.0,367.0,193.0,550.0,517.9,543.6
710,1555413363.0594273,469.0,477.0,193.0,550.0,516.65,537.65
711,1555413363.1456974,453.0,578.0,193.0,550.0,514.55,526.65
712,1555413363.2315283,405.0,467.0,219.0,550.0,509.0,529.05
713,1555413363.3043354,382.0,401.0,242.0,550.0,500.0,523.5
714,1555413363.392969,468.0,483.0,242.0,550.0,498.95,520.35
715,1555413363.4726748,570.0,578.0,242.0,550.0,502.45,526.0
716,1555413363.5521162,570.0,340.0,242.0,550.0,505.85,517.65
717,1555413363.6335387,577.0,405.0,242.0,550.0,509.8,517.1
718,1555413363.701126,473.0,508.0,242.0,550.0,507.9,517.95
719,1555413363.7786918,444.0,367.0,242.0,550.0,501.85,506.75
720,1555413363.8715825,448.0,539.0,242.0,550.0,496.7,493.8
721,1555413363.9440534,495.0,283.0,242.0,393.0,495.75,465.65
722,1555413364.0144906,568.0,391.0,242.0,393.0,502.6,463.7
723,1555413364.0858893,607.0,336.0,242.0,393.0,510.75,465.7
724,1555413364.1634743,602.0,283.0,242.0,364.0,519.15,446.05
725,1555413364.2327957,564.0,148.0,242.0,498.0,521.6,421.1
726,1555413364.306171,540.0,390.0,242.0,430.0,520.1,408.3
727,1555413364.3808174,453.0,436.0,242.0,430.0,514.9,412.4
728,1555413364.4700918,390.0,477.0,225.0,430.0,503.2,412.7
729,1555413364.5489476,430.0,452.0,225.0,430.0,495.4,416.95
730,1555413364.6357744,578.0,662.0,225.0,514.0,500.85,426.2
731,1555413364.7114305,597.0,407.0,225.0,514.0,508.05,417.65
732,1555413364.7828898,598.0,472.0,225.0,514.0,517.7,417.9
733,1555413364.8589268,585.0,582.0,217.0,514.0,527.85,426.95
734,1555413364.9384043,513.0,882.0,217.0,734.0,530.1,446.9
735,1555413365.0187855,478.0,660.0,217.0,734.0,525.5,451.0
736,1555413365.0979803,418.0,688.0,217.0,734.0,517.9,468.4
737,1555413365.172465,434.0,1022.0,217.0,874.0,510.75,499.25
738,1555413365.2508113,506.0,489.0,217.0,874.0,512.4,498.3
739,1555413365.324604,546.0,716.0,217.0,874.0,517.5,515.75
740,1555413365.395307,545.0,350.0,217.0,874.0,522.35,506.3
741,1555413365.467096,573.0,351.0,217.0,874.0,526.25,509.7
742,1555413365.534457,438.0,642.0,217.0,874.0,519.75,522.25
743,1555413365.6009438,366.0,264.0,236.0,874.0,507.7,518.65
744,1555413365.6671731,470.0,481.0,232.0,874.0,501.1,528.55
745,1555413365.7391255,548.0,370.0,232.0,758.0,500.3,539.65
746,1555413365.8087792,628.0,338.0,262.0,758.0,504.7,537.05
747,1555413365.8821099,642.0,254.0,276.0,768.0,514.15,527.95
748,1555413365.9485564,606.0,469.0,276.0,768.0,524.95,527.55
749,1555413366.0152013,572.0,690.0,276.0,768.0,532.05,539.45
750,1555413366.0829067,403.0,462.0,276.0,768.0,523.3,529.45
751,1555413366.154178,374.0,749.0,276.0,768.0,512.15,546.55
752,1555413366.2231915,348.0,536.0,294.0,768.0,499.65,549.75
753,1555413366.2919714,456.0,893.0,294.0,768.0,493.2,565.3
754,1555413366.3694375,473.0,551.0,294.0,768.0,491.2,548.75
755,1555413366.4398642,513.0,639.0,294.0,768.0,492.95,547.7
756,1555413366.5141523,579.0,470.0,294.0,768.0,501.0,536.8
757,1555413366.5899577,504.0,529.0,294.0,639.0,504.5,512.15
758,1555413366.667284,507.0,536.0,294.0,639.0,504.55,514.5
759,1555413366.7454903,518.0,597.0,294.0,639.0,503.15,508.55
760,1555413366.8345885,559.0,470.0,294.0,639.0,503.85,514.55
761,1555413366.9174109,559.0,562.0,294.0,639.0,503.15,525.1
762,1555413367.011281,605.0,383.0,294.0,639.0,511.5,512.15
763,1555413367.0827332,558.0,382.0,294.0,639.0,521.1,518.05
764,1555413367.1553578,490.0,518.0,294.0,639.0,522.1,519.9
765,1555413367.2223973,464.0,238.0,294.0,655.0,517.9,513.3
766,1555413367.3028982,382.0,405.0,294.0,655.0,505.6,516.65
767,1555413367.3806903,371.0,309.0,258.0,655.0,492.05,519.4
768,1555413367.452332,412.0,597.0,257.0,655.0,482.35,525.8
769,1555413367.5209568,469.0,469.0,257.0,655.0,477.2,514.75
770,1555413367.5964005,517.0,564.0,257.0,655.0,482.9,519.85
771,1555413367.67647,704.0,853.0,356.0,655.0,499.4,525.05
772,1555413367.7658415,686.0,619.0,333.0,655.0,516.3,529.2
773,1555413367.8357246,719.0,707.0,348.0,615.0,529.45,519.9
774,1555413367.9214516,675.0,561.0,348.0,615.0,539.55,520.4
775,1555413368.0006807,663.0,469.0,348.0,615.0,547.05,511.9
776,1555413368.074468,684.0,552.0,348.0,615.0,552.3,516.0
777,1555413368.149398,484.0,572.0,348.0,615.0,551.3,518.15
778,1555413368.235938,335.0,747.0,384.0,615.0,542.7,528.7
779,1555413368.3074021,276.0,590.0,443.0,615.0,530.6,528.35
780,1555413368.379295,199.0,614.0,520.0,615.0,512.6,535.55
781,1555413368.450979,213.0,530.0,520.0,615.0,495.3,533.95
782,1555413368.5243428,466.0,557.0,520.0,615.0,488.35,542.65
783,1555413368.5950983,646.0,518.0,520.0,615.0,492.75,549.45
784,1555413368.6647651,666.0,351.0,520.0,615.0,501.55,541.1
785,1555413368.7372875,618.0,365.0,520.0,544.0,509.25,547.45
786,1555413368.830091,543.0,384.0,520.0,544.0,517.3,546.4
787,1555413368.9041665,371.0,533.0,520.0,502.0,517.3,557.6
788,1555413368.991271,425.0,464.0,520.0,502.0,517.95,550.95
789,1555413369.070369,529.0,546.0,520.0,502.0,520.95,554.8
790,1555413369.1436524,544.0,489.0,520.0,502.0,522.3,551.05
791,1555413369.22541,661.0,408.0,520.0,396.0,520.15,528.8
792,1555413369.3002245,585.0,592.0,520.0,396.0,515.1,527.45
793,1555413369.3727698,392.0,470.0,485.0,396.0,498.75,515.6
794,1555413369.4548087,182.0,562.0,502.0,396.0,474.1,515.65
795,1555413369.5358136,192.0,444.0,502.0,396.0,450.55,514.4
796,1555413369.6097407,369.0,580.0,484.0,396.0,434.8,515.8
797,1555413369.6950603,621.0,615.0,484.0,396.0,441.65,517.95
798,1555413369.770724,784.0,851.0,602.0,500.0,464.1,523.15
799,1555413369.8441093,778.0,711.0,602.0,500.0,489.2,529.2
800,1555413369.9167428,705.0,475.0,602.0,500.0,514.5,522.25
801,1555413370.0050583,435.0,328.0,602.0,523.0,525.6,512.15
802,1555413370.0886211,263.0,407.0,602.0,523.0,515.45,504.65
803,1555413370.1691082,318.0,536.0,602.0,523.0,499.05,505.55
804,1555413370.2398286,453.0,479.0,602.0,523.0,488.4,511.95
805,1555413370.3158314,532.0,372.0,602.0,523.0,484.1,512.3
806,1555413370.3844721,493.0,401.0,602.0,523.0,481.6,513.15
807,1555413370.4644206,434.0,517.0,602.0,523.0,484.75,512.35
808,1555413370.5526626,525.0,462.0,602.0,523.0,489.75,512.25
809,1555413370.6256762,632.0,369.0,602.0,523.0,494.9,503.4
810,1555413370.7050278,634.0,382.0,602.0,523.0,499.4,498.05
811,1555413370.7863424,557.0,507.0,602.0,523.0,494.2,503.0
812,1555413370.8651779,457.0,324.0,602.0,527.0,487.8,489.6
813,1555413370.951029,371.0,448.0,602.0,527.0,486.75,488.5
814,1555413371.0190482,414.0,393.0,592.0,527.0,498.35,480.05
815,1555413371.1016111,521.0,398.0,521.0,527.0,514.8,477.75
816,1555413371.190444,617.0,727.0,521.0,527.0,527.2,485.1
817,1555413371.2589238,551.0,613.0,521.0,527.0,523.7,485.0
818,1555413371.3290653,480.0,664.0,515.0,403.0,508.5,475.65
819,1555413371.4056098,485.0,606.0,442.0,403.0,493.85,470.4
820,1555413371.489301,493.0,591.0,371.0,403.0,483.25,476.2
821,1555413371.57148,625.0,431.0,371.0,403.0,492.75,481.35
822,1555413371.6593118,771.0,570.0,453.0,403.0,518.15,489.5
823,1555413371.733963,777.0,481.0,406.0,403.0,541.1,486.75
824,1555413371.8053823,574.0,500.0,406.0,403.0,547.15,487.8
825,1555413371.8737452,447.0,549.0,406.0,403.0,542.9,496.65
826,1555413371.948246,274.0,432.0,503.0,403.0,531.95,498.2
827,1555413372.018334,225.0,491.0,552.0,403.0,521.5,496.9
828,1555413372.0912728,320.0,641.0,552.0,403.0,511.25,505.85
829,1555413372.187139,679.0,370.0,552.0,403.0,513.6,505.9
830,1555413372.2567568,754.0,394.0,552.0,403.0,519.6,506.5
831,1555413372.3280468,661.0,456.0,552.0,403.0,524.8,503.95
832,1555413372.4014196,369.0,426.0,552.0,357.0,520.4,509.05
833,1555413372.4739258,210.0,674.0,567.0,357.0,512.35,520.35
834,1555413372.5527353,286.0,536.0,567.0,357.0,505.95,527.5
835,1555413372.6346588,514.0,579.0,567.0,357.0,505.6,536.55
836,1555413372.7127368,783.0,647.0,573.0,304.0,513.9,532.55
837,1555413372.7934618,941.0,561.0,731.0,304.0,533.4,529.95
838,1555413372.8795915,816.0,407.0,731.0,304.0,550.2,517.1
839,1555413372.9606068,364.0,322.0,731.0,352.0,544.15,502.9
840,1555413373.0523005,194.0,500.0,747.0,352.0,529.2,498.35
841,1555413373.1263835,120.0,310.0,821.0,364.0,503.95,492.3
842,1555413373.2008913,38.0,357.0,903.0,364.0,467.3,481.65
843,1555413373.2798269,131.0,616.0,903.0,364.0,435.0,488.4
844,1555413373.353047,255.0,745.0,903.0,435.0,419.05,500.65
845,1555413373.4312527,255.0,745.0,903.0,435.0,409.45,510.45
846,1555413373.5107877,570.0,502.0,903.0,435.0,424.25,513.95
847,1555413373.5874693,570.0,530.0,903.0,435.0,441.5,515.9
848,1555413373.6575823,517.0,390.0,903.0,435.0,451.35,503.35
849,1555413373.7377465,517.0,390.0,903.0,435.0,443.25,504.35
850,1555413373.8182185,520.0,487.0,903.0,435.0,431.55,509.0
851,1555413373.902383,547.0,487.0,903.0,435.0,425.85,510.55
852,1555413373.9887092,600.0,527.0,903.0,435.0,437.4,515.6
853,1555413374.0636637,570.0,502.0,903.0,435.0,455.4,507.0
854,1555413374.1345015,570.0,530.0,903.0,435.0,469.6,506.7
855,1555413374.2211971,517.0,390.0,903.0,435.0,469.75,497.25
856,1555413374.2897887,517.0,390.0,903.0,435.0,456.45,484.4
857,1555413374.3666255,520.0,487.0,778.0,435.0,435.4,480.7
858,1555413374.4377947,547.0,487.0,562.0,435.0,421.95,484.7
859,1555413374.5028517,600.0,527.0,562.0,435.0,433.75,494.95
860,1555413374.6072845,572.0,405.0,562.0,435.0,452.65,490.2
861,1555413374.687622,570.0,502.0,562.0,388.0,475.15,499.8
862,1555413374.7755337,517.0,390.0,469.0,355.0,499.1,501.45
863,1555413374.8613667,460.0,460.0,345.0,355.0,515.55,493.65
864,1555413374.9413626,590.0,1019.0,345.0,629.0,532.3,507.35
865,1555413375.024032,420.0,394.0,180.0,629.0,540.55,489.8
866,1555413375.1095214,555.0,495.0,180.0,629.0,539.8,489.45
867,1555413375.1776178,593.0,536.0,180.0,629.0,540.95,489.75
868,1555413375.244718,611.0,543.0,191.0,629.0,545.65,497.4
869,1555413375.334693,568.0,566.0,191.0,629.0,548.2,506.2
870,1555413375.4090524,556.0,696.0,191.0,629.0,550.0,516.65
871,1555413375.4912786,482.0,507.0,191.0,629.0,546.75,517.65
872,1555413375.5707037,466.0,493.0,191.0,629.0,540.05,515.95
873,1555413375.6503968,420.0,365.0,191.0,654.0,532.55,509.1
874,1555413375.7228093,487.0,622.0,191.0,654.0,528.4,513.7
875,1555413375.7892818,511.0,468.0,191.0,654.0,528.1,517.6
876,1555413375.8661208,484.0,479.0,191.0,654.0,526.45,522.05
877,1555413375.9360282,496.0,174.0,191.0,845.0,525.25,506.4
878,1555413376.0040333,504.0,302.0,191.0,845.0,523.1,497.15
879,1555413376.076328,522.0,493.0,191.0,845.0,519.2,495.45
880,1555413376.1504085,486.0,470.0,191.0,845.0,514.9,498.7
881,1555413376.219263,426.0,308.0,191.0,845.0,507.7,489.0
882,1555413376.2887907,459.0,477.0,191.0,845.0,504.8,493.35
883,1555413376.3588543,473.0,604.0,191.0,845.0,505.45,500.55
884,1555413376.4353867,483.0,450.0,191.0,522.0,500.1,472.1
885,1555413376.5133543,478.0,334.0,191.0,522.0,503.0,469.1
886,1555413376.5884998,515.0,420.0,191.0,522.0,501.0,465.35
887,1555413376.669145,542.0,449.0,191.0,522.0,498.45,461.0
888,1555413376.7591543,491.0,597.0,148.0,522.0,492.45,463.7
889,1555413376.84297,495.0,428.0,136.0,522.0,488.8,456.8
890,1555413376.9322386,516.0,582.0,122.0,448.0,486.8,451.1
891,1555413377.0117707,469.0,497.0,122.0,448.0,486.15,450.6
892,1555413377.0963094,484.0,536.0,122.0,448.0,487.05,452.75
893,1555413377.1710553,463.0,568.0,116.0,448.0,489.2,462.9
894,1555413377.2493634,463.0,502.0,116.0,430.0,488.0,456.9
895,1555413377.3343463,523.0,449.0,116.0,430.0,488.6,455.95
896,1555413377.4145954,549.0,535.0,123.0,430.0,491.85,458.75
897,1555413377.484069,529.0,502.0,123.0,302.0,493.5,475.15
898,1555413377.557156,488.0,313.0,123.0,296.0,492.7,475.7
899,1555413377.6422386,496.0,406.0,123.0,296.0,491.4,471.35
900,1555413377.7448852,465.0,381.0,123.0,296.0,490.35,466.9
901,1555413377.826726,470.0,461.0,90.0,291.0,492.55,474.55
902,1555413377.9119303,463.0,651.0,86.0,338.0,492.75,483.25
903,1555413377.980964,486.0,352.0,86.0,338.0,493.4,470.65
904,1555413378.0525527,518.0,415.0,86.0,338.0,495.15,468.9
905,1555413378.125974,558.0,500.0,95.0,338.0,499.15,477.2
906,1555413378.1948555,519.0,312.0,95.0,339.0,499.35,471.8
907,1555413378.284971,462.0,288.0,96.0,363.0,495.35,463.75
908,1555413378.3623083,419.0,595.0,139.0,363.0,491.75,463.65
909,1555413378.4409757,436.0,1014.0,139.0,726.0,488.8,492.95
910,1555413378.5132635,361.0,710.0,197.0,726.0,481.05,499.35
911,1555413378.5900285,547.0,610.0,197.0,726.0,484.95,505.0
912,1555413378.660059,666.0,594.0,305.0,726.0,494.05,507.9
913,1555413378.756086,689.0,543.0,328.0,726.0,505.35,506.65
914,1555413378.8265831,633.0,717.0,328.0,726.0,513.85,517.4
915,1555413378.9098206,558.0,583.0,328.0,726.0,515.6,524.1
916,1555413378.9921489,421.0,273.0,328.0,741.0,509.2,511.0
917,1555413379.0685875,417.0,574.0,328.0,741.0,503.6,514.6
918,1555413379.148588,332.0,270.0,357.0,744.0,495.8,512.45
919,1555413379.2326381,570.0,241.0,357.0,773.0,499.5,504.2
920,1555413379.300123,658.0,421.0,357.0,773.0,509.15,506.2
921,1555413379.3692477,598.0,220.0,357.0,794.0,515.55,494.15
922,1555413379.4412315,618.0,600.0,357.0,794.0,523.3,491.6
923,1555413379.5154254,548.0,450.0,357.0,794.0,526.4,496.5
924,1555413379.5879195,458.0,375.0,357.0,794.0,523.4,494.5
925,1555413379.6775868,352.0,439.0,357.0,794.0,513.1,491.45
926,1555413379.749719,477.0,776.0,357.0,794.0,511.0,514.65
927,1555413379.8328128,474.0,551.0,357.0,794.0,511.6,527.8
928,1555413379.919621,545.0,473.0,357.0,794.0,517.9,521.7
929,1555413380.0065064,581.0,412.0,357.0,556.0,525.15,491.6
930,1555413380.0863497,573.0,560.0,357.0,556.0,535.75,484.1
931,1555413380.1530528,509.0,374.0,357.0,556.0,533.85,472.3
932,1555413380.2237544,447.0,559.0,357.0,556.0,522.9,470.55
933,1555413380.293496,382.0,690.0,326.0,556.0,507.55,477.9
934,1555413380.3654258,324.0,646.0,334.0,556.0,492.1,474.35
935,1555413380.4375627,324.0,647.0,334.0,556.0,480.4,477.55
936,1555413380.5073323,366.0,344.0,334.0,556.0,477.65,481.1
937,1555413380.5805871,580.0,473.0,334.0,556.0,485.8,476.05
938,1555413380.6574316,693.0,317.0,369.0,556.0,503.85,478.4
939,1555413380.7417252,673.0,353.0,369.0,556.0,509.0,484.0
940,1555413380.823729,528.0,567.0,369.0,556.0,502.5,491.3
941,1555413380.9142342,463.0,509.0,369.0,459.0,495.75,505.75
942,1555413380.9977064,325.0,598.0,369.0,459.0,481.1,505.65
943,1555413381.0677872,350.0,751.0,369.0,459.0,471.2,520.7
944,1555413381.1329806,469.0,525.0,369.0,459.0,471.75,528.2
945,1555413381.211975,564.0,506.0,369.0,459.0,482.35,531.55
946,1555413381.291763,601.0,556.0,369.0,434.0,488.55,520.55
947,1555413381.3751273,512.0,573.0,369.0,434.0,490.45,521.65
948,1555413381.4501758,467.0,895.0,369.0,578.0,486.55,542.75
949,1555413381.5326567,421.0,510.0,369.0,578.0,478.55,547.65
950,1555413381.6097372,322.0,691.0,371.0,578.0,466.0,554.2
951,1555413381.686166,369.0,773.0,371.0,578.0,459.0,574.15
952,1555413381.7592096,403.0,561.0,371.0,578.0,456.8,574.25
953,1555413381.8277729,569.0,263.0,371.0,632.0,466.15,552.9
954,1555413381.9061377,686.0,379.0,371.0,632.0,484.25,539.55
955,1555413381.9866226,658.0,30.0,371.0,865.0,500.95,508.7
956,1555413382.0546186,669.0,440.0,371.0,865.0,516.1,513.5
957,1555413382.135964,602.0,501.0,371.0,865.0,517.2,514.9
958,1555413382.2204099,488.0,899.0,364.0,869.0,506.95,544.0
959,1555413382.3087943,378.0,455.0,364.0,869.0,492.2,549.1
960,1555413382.3969002,492.0,464.0,364.0,869.0,490.4,543.95
961,1555413382.4670057,530.0,532.0,364.0,869.0,493.75,545.1
962,1555413382.5475676,609.0,558.0,364.0,869.0,507.95,543.1
963,1555413382.617599,599.0,1.0,364.0,898.0,520.4,505.6
964,1555413382.6855588,558.0,240.0,364.0,898.0,524.85,491.35
965,1555413382.7553186,569.0,340.0,364.0,898.0,525.1,483.05
966,1555413382.825061,510.0,639.0,364.0,898.0,520.55,487.2
967,1555413382.8971164,300.0,540.0,386.0,898.0,509.95,485.55
968,1555413382.969976,387.0,523.0,386.0,898.0,505.95,466.95
969,1555413383.043032,466.0,621.0,386.0,898.0,508.2,472.5
970,1555413383.116692,613.0,741.0,386.0,898.0,522.75,475.0
971,1555413383.1857734,698.0,788.0,398.0,898.0,539.2,475.75
972,1555413383.2671318,736.0,354.0,436.0,898.0,555.85,465.4
973,1555413383.3493404,734.0,184.0,436.0,898.0,564.1,461.45
974,1555413383.4318917,605.0,218.0,436.0,898.0,560.05,453.4
975,1555413383.50884,527.0,451.0,436.0,898.0,553.5,474.45
976,1555413383.587272,338.0,459.0,436.0,898.0,536.95,475.4
977,1555413383.6602213,223.0,270.0,513.0,898.0,518.0,463.85
978,1555413383.7363517,336.0,396.0,513.0,787.0,510.4,438.7
979,1555413383.8303041,526.0,699.0,513.0,787.0,517.8,450.9
980,1555413383.9171076,702.0,747.0,513.0,787.0,528.3,465.05
981,1555413384.0085998,757.0,527.0,534.0,787.0,539.65,464.8
982,1555413384.1004229,755.0,348.0,534.0,787.0,546.95,454.3
983,1555413384.1775765,604.0,702.0,534.0,604.0,547.2,489.35
984,1555413384.2532227,393.0,390.0,534.0,604.0,538.95,496.85
985,1555413384.3368506,214.0,644.0,543.0,604.0,521.2,512.05
986,1555413384.430202,188.0,677.0,569.0,604.0,505.1,513.95
987,1555413384.5034218,185.0,208.0,572.0,604.0,499.35,497.35
988,1555413384.5820174,406.0,629.0,572.0,604.0,500.3,502.65
989,1555413384.6532345,547.0,714.0,572.0,604.0,504.35,507.3
990,1555413384.7370348,678.0,494.0,572.0,604.0,507.6,494.95
991,1555413384.822938,698.0,195.0,572.0,563.0,507.6,465.3
992,1555413384.8945024,645.0,305.0,572.0,563.0,503.05,462.85
993,1555413384.961303,585.0,758.0,572.0,563.0,495.6,491.55
994,1555413385.0372083,379.0,301.0,572.0,563.0,484.3,495.7
995,1555413385.1169107,456.0,381.0,572.0,563.0,480.75,492.2
996,1555413385.1996899,477.0,437.0,572.0,563.0,487.7,491.1
997,1555413385.267355,501.0,443.0,572.0,563.0,501.6,499.75
998,1555413385.362248,577.0,716.0,572.0,563.0,513.65,515.75
999,1555413385.4356346,450.0,395.0,572.0,563.0,509.85,500.55
1000,1555413385.5093372,401.0,678.0,572.0,563.0,494.8,497.1
1001,1555413385.585005,398.0,675.0,570.0,563.0,476.85,504.5
1002,1555413385.6709137,304.0,279.0,513.0,563.0,454.3,501.05
1003,1555413385.748554,548.0,566.0,513.0,563.0,451.5,494.25
1004,1555413385.8210661,626.0,447.0,513.0,563.0,463.15,497.1
1005,1555413385.9166875,633.0,303.0,513.0,563.0,484.1,480.05
