,emg_prev_0_0,emg_prev_0_1,emg_prev_0_2,emg_prev_0_3,emg_prev_0_4,emg_prev_0_5,emg_prev_0_6,emg_prev_0_7,emg_prev_0_8,emg_prev_0_9,emg_prev_0_10,emg_prev_0_11,emg_prev_0_12,emg_prev_0_13,emg_prev_0_14,emg_prev_0_15,emg_prev_0_16,emg_prev_0_17,emg_prev_0_18,emg_prev_0_19,emg_prev_1_0,emg_prev_1_1,emg_prev_1_2,emg_prev_1_3,emg_prev_1_4,emg_prev_1_5,emg_prev_1_6,emg_prev_1_7,emg_prev_1_8,emg_prev_1_9,emg_prev_1_10,emg_prev_1_11,emg_prev_1_12,emg_prev_1_13,emg_prev_1_14,emg_prev_1_15,emg_prev_1_16,emg_prev_1_17,emg_prev_1_18,emg_prev_1_19,emg_prev_2_0,emg_prev_2_1,emg_prev_2_2,emg_prev_2_3,emg_prev_2_4,emg_prev_2_5,emg_prev_2_6,emg_prev_2_7,emg_prev_2_8,emg_prev_2_9,emg_prev_2_10,emg_prev_2_11,emg_prev_2_12,emg_prev_2_13,emg_prev_2_14,emg_prev_2_15,emg_prev_2_16,emg_prev_2_17,emg_prev_2_18,emg_prev_2_19,emg_ampl_0,emg_ampl_1,emg_ampl_2,emg_0,emg_1,emg_2,emg_med_0,emg_med_1,emg_med_2,emg_min_0,emg_min_1,emg_min_2,emg_max_0,emg_max_1,emg_max_2
0,0.0,0.0,0.0,0.0,0.0,0.0,0.0,0.0,0.0,0.0,0.0,0.0,0.0,0.0,0.0,0.0,0.0,0.0,0.0,0.0,0.0,0.0,0.0,0.0,0.0,0.0,0.0,0.0,0.0,0.0,0.0,0.0,0.0,0.0,0.0,0.0,0.0,0.0,0.0,0.0,0.0,0.0,0.0,0.0,0.0,0.0,0.0,0.0,0.0,0.0,0.0,0.0,0.0,0.0,0.0,0.0,0.0,0.0,0.0,0.0,0.0,0.0,0.0,0.0,0.0,0.0,0.0,0.0,0.0,0.0,0.0,0.0,0.0,0.0,0.0
0,506.0,506.0,506.0,506.0,506.0,506.0,506.0,506.0,506.0,506.0,511.0,511.0,511.0,511.0,511.0,505.0,505.0,505.0,505.0,505.0,511.0,511.0,511.0,511.0,511.0,496.0,496.0,496.0,496.0,496.0,488.0,488.0,488.0,488.0,488.0,491.0,491.0,491.0,491.0,491.0,503.0,503.0,503.0,503.0,503.0,528.0,528.0,528.0,528.0,528.0,589.0,589.0,589.0,589.0,589.0,592.0,592.0,592.0,592.0,592.0,8.0,49.0,114.0,505.0,491.0,592.0,509.2888888888889,504.35555555555555,525.2,505.0,488.0,503.0,511.0,511.0,592.0
0,506.0,506.0,506.0,506.0,506.0,511.0,511.0,511.0,511.0,511.0,505.0,505.0,505.0,505.0,505.0,506.0,506.0,506.0,506.0,510.0,496.0,496.0,496.0,496.0,496.0,488.0,488.0,488.0,488.0,488.0,491.0,491.0,491.0,491.0,491.0,468.0,468.0,468.0,468.0,492.0,528.0,528.0,528.0,528.0,528.0,589.0,589.0,589.0,589.0,589.0,592.0,592.0,592.0,592.0,592.0,548.0,548.0,548.0,548.0,487.0,8.0,53.0,114.0,510.0,492.0,487.0,508.9111111111111,499.26666666666665,523.5111111111111,505.0,468.0,487.0,511.0,496.0,592.0
0,506.0,511.0,511.0,511.0,511.0,511.0,505.0,505.0,505.0,505.0,505.0,506.0,506.0,506.0,506.0,510.0,510.0,510.0,510.0,510.0,496.0,488.0,488.0,488.0,488.0,488.0,491.0,491.0,491.0,491.0,491.0,468.0,468.0,468.0,468.0,492.0,492.0,492.0,492.0,500.0,528.0,589.0,589.0,589.0,589.0,589.0,592.0,592.0,592.0,592.0,592.0,548.0,548.0,548.0,548.0,487.0,487.0,487.0,487.0,446.0,8.0,53.0,146.0,510.0,500.0,446.0,508.77777777777777,497.6222222222222,520.4666666666667,505.0,468.0,446.0,511.0,500.0,592.0
0,511.0,505.0,505.0,505.0,505.0,505.0,506.0,506.0,506.0,506.0,510.0,510.0,510.0,510.0,510.0,510.0,510.0,510.0,510.0,509.0,488.0,491.0,491.0,491.0,491.0,491.0,468.0,468.0,468.0,468.0,492.0,492.0,492.0,492.0,500.0,500.0,500.0,500.0,500.0,507.0,589.0,592.0,592.0,592.0,592.0,592.0,548.0,548.0,548.0,548.0,487.0,487.0,487.0,487.0,446.0,446.0,446.0,446.0,446.0,436.0,8.0,53.0,156.0,509.0,507.0,436.0,508.46666666666664,495.84444444444443,515.4,505.0,468.0,436.0,511.0,507.0,592.0
0,505.0,506.0,506.0,506.0,506.0,510.0,510.0,510.0,510.0,510.0,510.0,510.0,510.0,510.0,509.0,509.0,509.0,509.0,509.0,506.0,491.0,468.0,468.0,468.0,468.0,492.0,492.0,492.0,492.0,500.0,500.0,500.0,500.0,500.0,507.0,507.0,507.0,507.0,507.0,517.0,592.0,548.0,548.0,548.0,548.0,487.0,487.0,487.0,487.0,446.0,446.0,446.0,446.0,446.0,436.0,436.0,436.0,436.0,436.0,450.0,7.0,49.0,156.0,506.0,517.0,450.0,508.0444444444444,495.75555555555553,510.9555555555556,505.0,468.0,436.0,510.0,517.0,592.0
0,510.0,510.0,510.0,510.0,510.0,510.0,510.0,510.0,510.0,509.0,509.0,509.0,509.0,509.0,506.0,506.0,506.0,506.0,508.0,508.0,492.0,492.0,492.0,492.0,500.0,500.0,500.0,500.0,500.0,507.0,507.0,507.0,507.0,507.0,517.0,517.0,517.0,517.0,488.0,488.0,487.0,487.0,487.0,487.0,446.0,446.0,446.0,446.0,446.0,436.0,436.0,436.0,436.0,436.0,450.0,450.0,450.0,450.0,455.0,455.0,6.0,49.0,156.0,508.0,488.0,455.0,507.73333333333335,496.55555555555554,506.9111111111111,506.0,488.0,436.0,510.0,517.0,487.0
0,510.0,510.0,510.0,510.0,510.0,510.0,509.0,509.0,509.0,509.0,509.0,506.0,506.0,506.0,506.0,508.0,508.0,508.0,508.0,503.0,492.0,500.0,500.0,500.0,500.0,500.0,507.0,507.0,507.0,507.0,507.0,517.0,517.0,517.0,517.0,488.0,488.0,488.0,488.0,496.0,487.0,446.0,446.0,446.0,446.0,446.0,436.0,436.0,436.0,436.0,436.0,450.0,450.0,450.0,450.0,455.0,455.0,455.0,455.0,469.0,8.0,49.0,156.0,503.0,496.0,469.0,507.68888888888887,495.53333333333336,504.2888888888889,503.0,488.0,436.0,510.0,517.0,487.0
0,510.0,509.0,509.0,509.0,509.0,509.0,506.0,506.0,506.0,506.0,508.0,508.0,508.0,508.0,503.0,503.0,503.0,503.0,503.0,508.0,500.0,507.0,507.0,507.0,507.0,507.0,517.0,517.0,517.0,517.0,488.0,488.0,488.0,488.0,496.0,496.0,496.0,496.0,496.0,512.0,446.0,436.0,436.0,436.0,436.0,436.0,450.0,450.0,450.0,450.0,455.0,455.0,455.0,455.0,469.0,469.0,469.0,469.0,511.0,511.0,8.0,49.0,156.0,508.0,512.0,511.0,507.46666666666664,494.8888888888889,500.3333333333333,503.0,488.0,436.0,510.0,517.0,511.0
0,509.0,506.0,506.0,506.0,506.0,508.0,508.0,508.0,508.0,503.0,503.0,503.0,503.0,503.0,508.0,508.0,508.0,508.0,508.0,511.0,507.0,517.0,517.0,517.0,517.0,488.0,488.0,488.0,488.0,496.0,496.0,496.0,496.0,496.0,512.0,512.0,512.0,512.0,512.0,521.0,436.0,450.0,450.0,450.0,450.0,455.0,455.0,455.0,455.0,469.0,469.0,469.0,469.0,469.0,511.0,511.0,511.0,511.0,511.0,603.0,8.0,53.0,167.0,511.0,521.0,603.0,507.53333333333336,497.22222222222223,497.77777777777777,503.0,488.0,436.0,511.0,521.0,603.0
0,506.0,508.0,508.0,508.0,508.0,503.0,503.0,503.0,503.0,503.0,508.0,508.0,508.0,508.0,508.0,511.0,511.0,511.0,511.0,512.0,517.0,488.0,488.0,488.0,488.0,496.0,496.0,496.0,496.0,496.0,512.0,512.0,512.0,512.0,512.0,521.0,521.0,521.0,521.0,511.0,450.0,455.0,455.0,455.0,455.0,469.0,469.0,469.0,469.0,469.0,511.0,511.0,511.0,511.0,511.0,603.0,603.0,603.0,603.0,615.0,9.0,53.0,179.0,512.0,511.0,615.0,507.68888888888887,499.8666666666667,499.22222222222223,503.0,488.0,450.0,512.0,521.0,615.0
0,508.0,503.0,503.0,503.0,503.0,503.0,508.0,508.0,508.0,508.0,508.0,511.0,511.0,511.0,511.0,512.0,512.0,512.0,512.0,512.0,488.0,496.0,496.0,496.0,496.0,496.0,512.0,512.0,512.0,512.0,512.0,521.0,521.0,521.0,521.0,511.0,511.0,511.0,511.0,523.0,455.0,469.0,469.0,469.0,469.0,469.0,511.0,511.0,511.0,511.0,511.0,603.0,603.0,603.0,603.0,615.0,615.0,615.0,615.0,583.0,9.0,55.0,179.0,512.0,523.0,583.0,508.31111111111113,501.9111111111111,500.55555555555554,503.0,488.0,455.0,512.0,523.0,615.0
0,503.0,508.0,508.0,508.0,508.0,508.0,511.0,511.0,511.0,511.0,512.0,512.0,512.0,512.0,512.0,512.0,512.0,512.0,512.0,510.0,496.0,512.0,512.0,512.0,512.0,512.0,521.0,521.0,521.0,521.0,511.0,511.0,511.0,511.0,523.0,523.0,523.0,523.0,523.0,530.0,469.0,511.0,511.0,511.0,511.0,511.0,603.0,603.0,603.0,603.0,615.0,615.0,615.0,615.0,583.0,583.0,583.0,583.0,583.0,534.0,9.0,42.0,179.0,510.0,530.0,534.0,508.84444444444443,507.64444444444445,504.7111111111111,503.0,496.0,469.0,512.0,530.0,615.0
0,508.0,511.0,511.0,511.0,511.0,512.0,512.0,512.0,512.0,512.0,512.0,512.0,512.0,512.0,510.0,510.0,510.0,510.0,510.0,508.0,512.0,521.0,521.0,521.0,521.0,511.0,511.0,511.0,511.0,523.0,523.0,523.0,523.0,523.0,530.0,530.0,530.0,530.0,530.0,528.0,511.0,603.0,603.0,603.0,603.0,615.0,615.0,615.0,615.0,583.0,583.0,583.0,583.0,583.0,534.0,534.0,534.0,534.0,534.0,483.0,9.0,42.0,179.0,508.0,528.0,483.0,508.8,511.46666666666664,510.6222222222222,508.0,511.0,483.0,512.0,530.0,615.0
0,512.0,512.0,512.0,512.0,512.0,512.0,512.0,512.0,512.0,510.0,510.0,510.0,510.0,510.0,508.0,508.0,508.0,508.0,508.0,508.0,511.0,511.0,511.0,511.0,523.0,523.0,523.0,523.0,523.0,530.0,530.0,530.0,530.0,530.0,528.0,528.0,528.0,528.0,528.0,522.0,615.0,615.0,615.0,615.0,583.0,583.0,583.0,583.0,583.0,534.0,534.0,534.0,534.0,534.0,483.0,483.0,483.0,483.0,483.0,469.0,9.0,42.0,179.0,508.0,522.0,469.0,508.6222222222222,514.1333333333333,514.8666666666667,508.0,511.0,469.0,512.0,530.0,615.0
0,512.0,512.0,512.0,512.0,512.0,510.0,510.0,510.0,510.0,510.0,508.0,508.0,508.0,508.0,508.0,508.0,508.0,508.0,508.0,505.0,523.0,523.0,523.0,523.0,523.0,530.0,530.0,530.0,530.0,530.0,528.0,528.0,528.0,528.0,528.0,522.0,522.0,522.0,522.0,522.0,583.0,583.0,583.0,583.0,583.0,534.0,534.0,534.0,534.0,534.0,483.0,483.0,483.0,483.0,483.0,469.0,469.0,469.0,469.0,481.0,9.0,42.0,165.0,505.0,522.0,481.0,508.53333333333336,515.2444444444444,517.7555555555556,505.0,522.0,469.0,512.0,530.0,583.0
0,510.0,510.0,510.0,510.0,510.0,508.0,508.0,508.0,508.0,508.0,508.0,508.0,508.0,508.0,505.0,505.0,505.0,505.0,505.0,518.0,530.0,530.0,530.0,530.0,530.0,528.0,528.0,528.0,528.0,528.0,522.0,522.0,522.0,522.0,522.0,522.0,522.0,522.0,522.0,508.0,534.0,534.0,534.0,534.0,534.0,483.0,483.0,483.0,483.0,483.0,469.0,469.0,469.0,469.0,481.0,481.0,481.0,481.0,481.0,499.0,15.0,42.0,160.0,518.0,508.0,499.0,508.6222222222222,516.7777777777778,521.3777777777777,505.0,508.0,469.0,518.0,530.0,534.0
0,508.0,508.0,508.0,508.0,508.0,508.0,508.0,508.0,508.0,505.0,505.0,505.0,505.0,505.0,518.0,518.0,518.0,518.0,510.0,510.0,528.0,528.0,528.0,528.0,528.0,522.0,522.0,522.0,522.0,522.0,522.0,522.0,522.0,522.0,508.0,508.0,508.0,508.0,502.0,502.0,483.0,483.0,483.0,483.0,483.0,469.0,469.0,469.0,469.0,481.0,481.0,481.0,481.0,481.0,499.0,499.0,499.0,499.0,519.0,519.0,15.0,34.0,146.0,510.0,502.0,519.0,509.8888888888889,518.3333333333334,525.7777777777778,505.0,502.0,469.0,518.0,528.0,519.0
0,508.0,508.0,508.0,505.0,505.0,505.0,505.0,505.0,518.0,518.0,518.0,518.0,518.0,510.0,510.0,510.0,510.0,510.0,507.0,507.0,522.0,522.0,522.0,522.0,522.0,522.0,522.0,522.0,508.0,508.0,508.0,508.0,508.0,502.0,502.0,502.0,502.0,502.0,511.0,511.0,469.0,469.0,469.0,481.0,481.0,481.0,481.0,481.0,499.0,499.0,499.0,499.0,499.0,519.0,519.0,519.0,519.0,519.0,543.0,543.0,13.0,28.0,146.0,507.0,511.0,543.0,510.24444444444447,518.1111111111111,529.7777777777778,505.0,502.0,469.0,518.0,522.0,543.0
0,505.0,505.0,505.0,518.0,518.0,518.0,518.0,518.0,510.0,510.0,510.0,510.0,510.0,507.0,507.0,507.0,507.0,507.0,507.0,508.0,522.0,522.0,522.0,508.0,508.0,508.0,508.0,508.0,502.0,502.0,502.0,502.0,502.0,511.0,511.0,511.0,511.0,511.0,511.0,507.0,481.0,481.0,481.0,499.0,499.0,499.0,499.0,499.0,519.0,519.0,519.0,519.0,519.0,543.0,543.0,543.0,543.0,543.0,543.0,582.0,13.0,28.0,146.0,508.0,507.0,582.0,509.8888888888889,517.1111111111111,526.0222222222222,505.0,502.0,481.0,518.0,522.0,582.0
0,518.0,518.0,510.0,510.0,510.0,510.0,510.0,507.0,507.0,507.0,507.0,507.0,507.0,508.0,508.0,508.0,508.0,508.0,508.0,504.0,508.0,508.0,502.0,502.0,502.0,502.0,502.0,511.0,511.0,511.0,511.0,511.0,511.0,507.0,507.0,507.0,507.0,507.0,507.0,504.0,499.0,499.0,519.0,519.0,519.0,519.0,519.0,543.0,543.0,543.0,543.0,543.0,543.0,582.0,582.0,582.0,582.0,582.0,582.0,567.0,14.0,28.0,114.0,504.0,504.0,567.0,509.26666666666665,515.9777777777778,522.7111111111111,504.0,502.0,499.0,518.0,511.0,582.0
0,510.0,510.0,507.0,507.0,507.0,507.0,507.0,507.0,508.0,508.0,508.0,508.0,508.0,508.0,504.0,504.0,504.0,504.0,504.0,510.0,502.0,502.0,511.0,511.0,511.0,511.0,511.0,511.0,507.0,507.0,507.0,507.0,507.0,507.0,504.0,504.0,504.0,504.0,504.0,480.0,519.0,519.0,543.0,543.0,543.0,543.0,543.0,543.0,582.0,582.0,582.0,582.0,582.0,582.0,567.0,567.0,567.0,567.0,567.0,524.0,14.0,50.0,113.0,510.0,480.0,524.0,508.6,513.0222222222222,522.1555555555556,504.0,480.0,519.0,510.0,511.0,582.0
0,507.0,507.0,508.0,508.0,508.0,508.0,508.0,508.0,504.0,504.0,504.0,504.0,504.0,510.0,510.0,510.0,510.0,510.0,512.0,512.0,511.0,511.0,507.0,507.0,507.0,507.0,507.0,507.0,504.0,504.0,504.0,504.0,504.0,480.0,480.0,480.0,480.0,480.0,491.0,491.0,543.0,543.0,582.0,582.0,582.0,582.0,582.0,582.0,567.0,567.0,567.0,567.0,567.0,524.0,524.0,524.0,524.0,524.0,465.0,465.0,14.0,48.0,117.0,512.0,491.0,465.0,508.8222222222222,506.97777777777776,521.6,504.0,480.0,465.0,512.0,511.0,582.0
0,508.0,508.0,508.0,504.0,504.0,504.0,504.0,504.0,510.0,510.0,510.0,510.0,510.0,512.0,512.0,512.0,512.0,512.0,509.0,509.0,507.0,507.0,507.0,504.0,504.0,504.0,504.0,504.0,480.0,480.0,480.0,480.0,480.0,491.0,491.0,491.0,491.0,491.0,496.0,496.0,582.0,582.0,582.0,567.0,567.0,567.0,567.0,567.0,524.0,524.0,524.0,524.0,524.0,465.0,465.0,465.0,465.0,465.0,409.0,409.0,14.0,42.0,173.0,509.0,496.0,409.0,509.1333333333333,503.4888888888889,518.0444444444445,504.0,480.0,409.0,512.0,507.0,582.0
0,504.0,504.0,504.0,504.0,510.0,510.0,510.0,510.0,510.0,512.0,512.0,512.0,512.0,512.0,509.0,509.0,509.0,509.0,507.0,507.0,504.0,504.0,504.0,504.0,480.0,480.0,480.0,480.0,480.0,491.0,491.0,491.0,491.0,491.0,496.0,496.0,496.0,496.0,503.0,503.0,567.0,567.0,567.0,567.0,524.0,524.0,524.0,524.0,524.0,465.0,465.0,465.0,465.0,465.0,409.0,409.0,409.0,409.0,393.0,393.0,14.0,42.0,189.0,507.0,503.0,393.0,509.3333333333333,501.4888888888889,511.2,504.0,480.0,393.0,512.0,504.0,567.0
0,504.0,510.0,510.0,510.0,510.0,510.0,512.0,512.0,512.0,512.0,512.0,509.0,509.0,509.0,509.0,507.0,507.0,507.0,511.0,511.0,504.0,480.0,480.0,480.0,480.0,480.0,491.0,491.0,491.0,491.0,491.0,496.0,496.0,496.0,503.0,503.0,503.0,503.0,487.0,487.0,567.0,524.0,524.0,524.0,524.0,524.0,465.0,465.0,465.0,465.0,465.0,409.0,409.0,409.0,393.0,393.0,393.0,393.0,418.0,418.0,14.0,31.0,189.0,511.0,487.0,418.0,509.26666666666665,500.1777777777778,505.4888888888889,504.0,480.0,393.0,512.0,504.0,567.0
0,510.0,512.0,512.0,512.0,512.0,512.0,509.0,509.0,509.0,509.0,507.0,507.0,507.0,507.0,511.0,511.0,511.0,511.0,509.0,509.0,480.0,491.0,491.0,491.0,491.0,491.0,496.0,496.0,496.0,496.0,503.0,503.0,503.0,503.0,487.0,487.0,487.0,487.0,483.0,483.0,524.0,465.0,465.0,465.0,465.0,465.0,409.0,409.0,409.0,409.0,393.0,393.0,393.0,393.0,418.0,418.0,418.0,418.0,447.0,447.0,8.0,31.0,189.0,509.0,483.0,447.0,508.5777777777778,497.8,497.3333333333333,507.0,480.0,393.0,512.0,503.0,524.0
0,512.0,512.0,509.0,509.0,509.0,509.0,507.0,507.0,507.0,507.0,511.0,511.0,511.0,511.0,509.0,509.0,509.0,509.0,510.0,510.0,491.0,491.0,496.0,496.0,496.0,496.0,503.0,503.0,503.0,503.0,487.0,487.0,487.0,487.0,483.0,483.0,483.0,483.0,486.0,486.0,465.0,465.0,409.0,409.0,409.0,409.0,393.0,393.0,393.0,393.0,418.0,418.0,418.0,418.0,447.0,447.0,447.0,447.0,478.0,478.0,8.0,31.0,189.0,510.0,486.0,478.0,508.53333333333336,496.24444444444447,492.31111111111113,507.0,483.0,393.0,512.0,503.0,478.0
0,509.0,509.0,507.0,507.0,507.0,507.0,511.0,511.0,511.0,511.0,509.0,509.0,509.0,509.0,510.0,510.0,510.0,510.0,512.0,512.0,496.0,496.0,503.0,503.0,503.0,503.0,487.0,487.0,487.0,487.0,483.0,483.0,483.0,483.0,486.0,486.0,486.0,486.0,510.0,510.0,409.0,409.0,393.0,393.0,393.0,393.0,418.0,418.0,418.0,418.0,447.0,447.0,447.0,447.0,478.0,478.0,478.0,478.0,521.0,521.0,8.0,31.0,189.0,512.0,510.0,521.0,508.8888888888889,495.0888888888889,488.44444444444446,507.0,483.0,393.0,512.0,510.0,521.0
0,507.0,507.0,511.0,511.0,511.0,511.0,509.0,509.0,509.0,509.0,510.0,510.0,510.0,510.0,512.0,512.0,512.0,512.0,508.0,508.0,503.0,503.0,487.0,487.0,487.0,487.0,483.0,483.0,483.0,483.0,486.0,486.0,486.0,486.0,510.0,510.0,510.0,510.0,500.0,500.0,393.0,393.0,418.0,418.0,418.0,418.0,447.0,447.0,447.0,447.0,478.0,478.0,478.0,478.0,521.0,521.0,521.0,521.0,563.0,563.0,8.0,30.0,189.0,508.0,500.0,563.0,509.1111111111111,494.73333333333335,486.6222222222222,507.0,483.0,393.0,512.0,510.0,563.0
0,511.0,511.0,509.0,509.0,509.0,509.0,510.0,510.0,510.0,510.0,512.0,512.0,512.0,512.0,508.0,508.0,508.0,508.0,510.0,510.0,487.0,487.0,483.0,483.0,483.0,483.0,486.0,486.0,486.0,486.0,510.0,510.0,510.0,510.0,500.0,500.0,500.0,500.0,510.0,510.0,418.0,418.0,447.0,447.0,447.0,447.0,478.0,478.0,478.0,478.0,521.0,521.0,521.0,521.0,563.0,563.0,563.0,563.0,563.0,563.0,8.0,30.0,174.0,510.0,510.0,563.0,509.2,494.55555555555554,484.93333333333334,508.0,483.0,418.0,512.0,510.0,563.0
0,509.0,509.0,510.0,510.0,510.0,510.0,512.0,512.0,512.0,512.0,508.0,508.0,508.0,508.0,510.0,510.0,510.0,510.0,505.0,505.0,483.0,483.0,486.0,486.0,486.0,486.0,510.0,510.0,510.0,510.0,500.0,500.0,500.0,500.0,510.0,510.0,510.0,510.0,522.0,522.0,447.0,447.0,478.0,478.0,478.0,478.0,521.0,521.0,521.0,521.0,563.0,563.0,563.0,563.0,563.0,563.0,563.0,563.0,530.0,530.0,8.0,42.0,174.0,505.0,522.0,530.0,509.5111111111111,495.6222222222222,483.1111111111111,505.0,483.0,447.0,512.0,522.0,563.0
0,510.0,510.0,512.0,512.0,512.0,512.0,508.0,508.0,508.0,508.0,510.0,510.0,510.0,510.0,505.0,505.0,505.0,505.0,503.0,503.0,486.0,486.0,510.0,510.0,510.0,510.0,500.0,500.0,500.0,500.0,510.0,510.0,510.0,510.0,522.0,522.0,522.0,522.0,534.0,534.0,478.0,478.0,521.0,521.0,521.0,521.0,563.0,563.0,563.0,563.0,563.0,563.0,563.0,530.0,530.0,530.0,530.0,530.0,487.0,487.0,9.0,54.0,170.0,503.0,534.0,487.0,509.15555555555557,499.0888888888889,481.73333333333335,503.0,486.0,478.0,512.0,534.0,563.0
0,512.0,508.0,508.0,508.0,508.0,510.0,510.0,510.0,510.0,505.0,505.0,505.0,505.0,505.0,503.0,503.0,503.0,503.0,503.0,509.0,510.0,500.0,500.0,500.0,500.0,510.0,510.0,510.0,510.0,522.0,522.0,522.0,522.0,522.0,534.0,534.0,534.0,534.0,534.0,532.0,521.0,563.0,563.0,563.0,563.0,563.0,563.0,563.0,563.0,530.0,530.0,530.0,530.0,530.0,487.0,487.0,487.0,487.0,487.0,471.0,9.0,51.0,170.0,509.0,532.0,471.0,508.3777777777778,504.31111111111113,481.2,503.0,500.0,471.0,512.0,534.0,563.0
0,508.0,510.0,510.0,510.0,510.0,505.0,505.0,505.0,505.0,505.0,503.0,503.0,503.0,503.0,503.0,509.0,509.0,509.0,511.0,511.0,500.0,510.0,510.0,510.0,510.0,522.0,522.0,522.0,522.0,522.0,534.0,534.0,534.0,534.0,534.0,532.0,532.0,532.0,535.0,535.0,563.0,563.0,563.0,563.0,563.0,530.0,530.0,530.0,530.0,530.0,487.0,487.0,487.0,487.0,471.0,471.0,471.0,471.0,479.0,479.0,9.0,52.0,170.0,511.0,535.0,479.0,508.2888888888889,507.8,484.4,503.0,500.0,471.0,511.0,535.0,563.0
0,510.0,505.0,505.0,505.0,505.0,505.0,503.0,503.0,503.0,503.0,503.0,509.0,509.0,509.0,509.0,511.0,511.0,511.0,511.0,507.0,510.0,522.0,522.0,522.0,522.0,522.0,534.0,534.0,534.0,534.0,534.0,532.0,532.0,532.0,532.0,535.0,535.0,535.0,535.0,540.0,563.0,530.0,530.0,530.0,530.0,530.0,487.0,487.0,487.0,487.0,487.0,471.0,471.0,471.0,471.0,479.0,479.0,479.0,479.0,501.0,9.0,57.0,170.0,507.0,540.0,501.0,508.46666666666664,511.06666666666666,491.8222222222222,503.0,510.0,471.0,511.0,540.0,563.0
0,505.0,505.0,503.0,503.0,503.0,503.0,503.0,509.0,509.0,509.0,511.0,511.0,511.0,511.0,507.0,507.0,507.0,507.0,510.0,510.0,522.0,522.0,534.0,534.0,534.0,534.0,534.0,532.0,532.0,532.0,535.0,535.0,535.0,535.0,540.0,540.0,540.0,540.0,530.0,530.0,530.0,530.0,487.0,487.0,487.0,487.0,487.0,471.0,471.0,471.0,479.0,479.0,479.0,479.0,501.0,501.0,501.0,501.0,533.0,533.0,9.0,57.0,145.0,510.0,530.0,533.0,508.35555555555555,514.8444444444444,501.02222222222224,503.0,522.0,471.0,511.0,540.0,533.0
0,503.0,503.0,509.0,509.0,509.0,509.0,511.0,511.0,511.0,511.0,507.0,507.0,507.0,507.0,510.0,510.0,510.0,510.0,508.0,508.0,534.0,534.0,532.0,532.0,532.0,532.0,535.0,535.0,535.0,535.0,540.0,540.0,540.0,540.0,530.0,530.0,530.0,530.0,529.0,529.0,487.0,487.0,471.0,471.0,471.0,471.0,479.0,479.0,479.0,479.0,501.0,501.0,501.0,501.0,533.0,533.0,533.0,533.0,550.0,550.0,9.0,57.0,116.0,508.0,529.0,550.0,508.2888888888889,519.8444444444444,512.6222222222223,503.0,529.0,471.0,511.0,540.0,550.0
0,509.0,509.0,509.0,511.0,511.0,511.0,511.0,507.0,507.0,507.0,507.0,510.0,510.0,510.0,508.0,508.0,508.0,508.0,510.0,510.0,532.0,532.0,532.0,535.0,535.0,535.0,535.0,540.0,540.0,540.0,540.0,530.0,530.0,530.0,529.0,529.0,529.0,529.0,503.0,503.0,471.0,471.0,471.0,479.0,479.0,479.0,479.0,501.0,501.0,501.0,501.0,533.0,533.0,533.0,550.0,550.0,550.0,550.0,573.0,573.0,9.0,54.0,102.0,510.0,503.0,573.0,508.22222222222223,522.2,518.6222222222223,507.0,503.0,471.0,511.0,540.0,573.0
0,511.0,511.0,507.0,507.0,507.0,507.0,510.0,510.0,510.0,510.0,508.0,508.0,508.0,508.0,510.0,510.0,510.0,510.0,506.0,506.0,535.0,535.0,540.0,540.0,540.0,540.0,530.0,530.0,530.0,530.0,529.0,529.0,529.0,529.0,503.0,503.0,503.0,503.0,515.0,515.0,479.0,479.0,501.0,501.0,501.0,501.0,533.0,533.0,533.0,533.0,550.0,550.0,550.0,550.0,573.0,573.0,573.0,573.0,574.0,574.0,9.0,40.0,103.0,506.0,515.0,574.0,507.9111111111111,523.0222222222222,526.3555555555556,506.0,503.0,479.0,511.0,540.0,574.0
0,507.0,507.0,507.0,510.0,510.0,510.0,510.0,508.0,508.0,508.0,508.0,510.0,510.0,510.0,510.0,506.0,506.0,506.0,510.0,510.0,540.0,540.0,540.0,530.0,530.0,530.0,530.0,529.0,529.0,529.0,529.0,503.0,503.0,503.0,503.0,515.0,515.0,515.0,502.0,502.0,501.0,501.0,501.0,533.0,533.0,533.0,533.0,550.0,550.0,550.0,550.0,573.0,573.0,573.0,573.0,574.0,574.0,574.0,540.0,540.0,8.0,40.0,103.0,510.0,502.0,540.0,507.8666666666667,523.2222222222222,526.5111111111111,506.0,502.0,501.0,510.0,540.0,574.0
0,510.0,510.0,510.0,508.0,508.0,508.0,508.0,510.0,510.0,510.0,510.0,506.0,506.0,506.0,510.0,510.0,510.0,510.0,506.0,506.0,530.0,530.0,530.0,529.0,529.0,529.0,529.0,503.0,503.0,503.0,503.0,515.0,515.0,515.0,502.0,502.0,502.0,502.0,517.0,517.0,533.0,533.0,533.0,550.0,550.0,550.0,550.0,573.0,573.0,573.0,573.0,574.0,574.0,574.0,540.0,540.0,540.0,540.0,495.0,495.0,8.0,38.0,103.0,506.0,517.0,495.0,507.77777777777777,523.6222222222223,522.4666666666667,506.0,502.0,495.0,510.0,530.0,574.0
0,508.0,508.0,508.0,508.0,510.0,510.0,510.0,510.0,506.0,506.0,506.0,510.0,510.0,510.0,510.0,506.0,506.0,506.0,508.0,508.0,529.0,529.0,529.0,529.0,503.0,503.0,503.0,503.0,515.0,515.0,515.0,502.0,502.0,502.0,502.0,517.0,517.0,517.0,501.0,501.0,550.0,550.0,550.0,550.0,573.0,573.0,573.0,573.0,574.0,574.0,574.0,540.0,540.0,540.0,540.0,495.0,495.0,495.0,444.0,444.0,8.0,39.0,130.0,508.0,501.0,444.0,507.7111111111111,523.1111111111111,516.4,506.0,501.0,444.0,510.0,529.0,574.0
0,510.0,510.0,510.0,510.0,506.0,506.0,506.0,510.0,510.0,510.0,510.0,506.0,506.0,506.0,508.0,508.0,508.0,508.0,505.0,505.0,503.0,503.0,503.0,503.0,515.0,515.0,515.0,502.0,502.0,502.0,502.0,517.0,517.0,517.0,501.0,501.0,501.0,501.0,508.0,508.0,573.0,573.0,573.0,573.0,574.0,574.0,574.0,540.0,540.0,540.0,540.0,495.0,495.0,495.0,444.0,444.0,444.0,444.0,369.0,369.0,8.0,39.0,205.0,505.0,508.0,369.0,507.84444444444443,521.5555555555555,505.4222222222222,505.0,501.0,369.0,510.0,517.0,574.0
0,510.0,510.0,506.0,506.0,506.0,510.0,510.0,510.0,510.0,506.0,506.0,506.0,508.0,508.0,508.0,508.0,505.0,505.0,505.0,507.0,503.0,503.0,515.0,515.0,515.0,502.0,502.0,502.0,502.0,517.0,517.0,517.0,501.0,501.0,501.0,501.0,508.0,508.0,508.0,494.0,573.0,573.0,574.0,574.0,574.0,540.0,540.0,540.0,540.0,495.0,495.0,495.0,444.0,444.0,444.0,444.0,369.0,369.0,369.0,344.0,8.0,46.0,230.0,507.0,494.0,344.0,507.97777777777776,520.0888888888888,499.6222222222222,505.0,494.0,344.0,510.0,517.0,574.0
0,506.0,510.0,510.0,510.0,510.0,506.0,506.0,506.0,508.0,508.0,508.0,508.0,505.0,505.0,505.0,507.0,507.0,507.0,507.0,507.0,515.0,502.0,502.0,502.0,502.0,517.0,517.0,517.0,501.0,501.0,501.0,501.0,508.0,508.0,508.0,494.0,494.0,494.0,483.0,483.0,574.0,540.0,540.0,540.0,540.0,495.0,495.0,495.0,444.0,444.0,444.0,444.0,369.0,369.0,369.0,344.0,344.0,344.0,368.0,368.0,6.0,57.0,230.0,507.0,483.0,368.0,508.2,516.0888888888888,488.3333333333333,505.0,483.0,344.0,510.0,517.0,574.0
0,510.0,506.0,506.0,506.0,508.0,508.0,508.0,508.0,505.0,505.0,505.0,507.0,507.0,507.0,507.0,507.0,507.0,507.0,502.0,502.0,502.0,517.0,517.0,517.0,501.0,501.0,501.0,501.0,508.0,508.0,508.0,494.0,494.0,494.0,483.0,483.0,483.0,483.0,500.0,500.0,540.0,495.0,495.0,495.0,444.0,444.0,444.0,444.0,369.0,369.0,369.0,344.0,344.0,344.0,368.0,368.0,368.0,368.0,380.0,380.0,9.0,57.0,230.0,502.0,500.0,380.0,507.75555555555553,512.4222222222222,479.53333333333336,502.0,483.0,344.0,510.0,517.0,540.0
0,508.0,508.0,508.0,508.0,505.0,505.0,505.0,507.0,507.0,507.0,507.0,507.0,507.0,507.0,502.0,502.0,502.0,502.0,507.0,507.0,501.0,501.0,501.0,501.0,508.0,508.0,508.0,494.0,494.0,494.0,483.0,483.0,483.0,483.0,500.0,500.0,500.0,500.0,486.0,486.0,444.0,444.0,444.0,444.0,369.0,369.0,369.0,344.0,344.0,344.0,368.0,368.0,368.0,368.0,380.0,380.0,380.0,380.0,407.0,407.0,8.0,57.0,230.0,507.0,486.0,407.0,507.26666666666665,508.5777777777778,471.44444444444446,502.0,483.0,344.0,508.0,508.0,444.0
0,505.0,505.0,505.0,507.0,507.0,507.0,507.0,507.0,507.0,507.0,502.0,502.0,502.0,502.0,507.0,507.0,507.0,507.0,514.0,514.0,508.0,508.0,508.0,494.0,494.0,494.0,483.0,483.0,483.0,483.0,500.0,500.0,500.0,500.0,486.0,486.0,486.0,486.0,481.0,481.0,369.0,369.0,369.0,344.0,344.0,344.0,368.0,368.0,368.0,368.0,380.0,380.0,380.0,380.0,407.0,407.0,407.0,407.0,423.0,423.0,12.0,49.0,230.0,514.0,481.0,423.0,507.5111111111111,503.77777777777777,463.0888888888889,502.0,481.0,344.0,514.0,508.0,423.0
0,507.0,507.0,507.0,507.0,507.0,507.0,502.0,502.0,502.0,502.0,507.0,507.0,507.0,507.0,514.0,514.0,514.0,514.0,509.0,509.0,494.0,494.0,483.0,483.0,483.0,483.0,500.0,500.0,500.0,500.0,486.0,486.0,486.0,486.0,481.0,481.0,481.0,481.0,494.0,494.0,344.0,344.0,368.0,368.0,368.0,368.0,380.0,380.0,380.0,380.0,407.0,407.0,407.0,407.0,423.0,423.0,423.0,423.0,428.0,428.0,12.0,48.0,230.0,509.0,494.0,428.0,507.68888888888887,500.02222222222224,453.15555555555557,502.0,481.0,344.0,514.0,500.0,428.0
0,507.0,507.0,507.0,502.0,502.0,502.0,502.0,507.0,507.0,507.0,507.0,514.0,514.0,514.0,514.0,509.0,509.0,509.0,509.0,511.0,483.0,483.0,483.0,500.0,500.0,500.0,500.0,486.0,486.0,486.0,486.0,481.0,481.0,481.0,481.0,494.0,494.0,494.0,494.0,480.0,368.0,368.0,368.0,380.0,380.0,380.0,380.0,407.0,407.0,407.0,407.0,423.0,423.0,423.0,423.0,428.0,428.0,428.0,428.0,464.0,12.0,37.0,230.0,511.0,480.0,464.0,507.8,497.3777777777778,445.8222222222222,502.0,480.0,368.0,514.0,500.0,464.0
0,502.0,502.0,507.0,507.0,507.0,507.0,514.0,514.0,514.0,514.0,509.0,509.0,509.0,509.0,511.0,511.0,511.0,511.0,511.0,511.0,500.0,500.0,486.0,486.0,486.0,486.0,481.0,481.0,481.0,481.0,494.0,494.0,494.0,494.0,480.0,480.0,480.0,480.0,498.0,498.0,380.0,380.0,407.0,407.0,407.0,407.0,423.0,423.0,423.0,423.0,428.0,428.0,428.0,428.0,464.0,464.0,464.0,464.0,518.0,518.0,12.0,37.0,230.0,511.0,498.0,518.0,508.0,495.35555555555555,436.0888888888889,502.0,480.0,380.0,514.0,500.0,518.0
0,507.0,507.0,514.0,514.0,514.0,514.0,509.0,509.0,509.0,509.0,511.0,511.0,511.0,511.0,511.0,511.0,511.0,511.0,512.0,512.0,486.0,486.0,481.0,481.0,481.0,481.0,494.0,494.0,494.0,494.0,480.0,480.0,480.0,480.0,498.0,498.0,498.0,498.0,500.0,500.0,407.0,407.0,423.0,423.0,423.0,423.0,428.0,428.0,428.0,428.0,464.0,464.0,464.0,464.0,518.0,518.0,518.0,518.0,454.0,454.0,12.0,37.0,196.0,512.0,500.0,454.0,508.31111111111113,494.5111111111111,429.77777777777777,507.0,480.0,407.0,514.0,500.0,518.0
0,514.0,514.0,509.0,509.0,509.0,509.0,511.0,511.0,511.0,511.0,511.0,511.0,511.0,511.0,512.0,512.0,512.0,512.0,518.0,518.0,481.0,481.0,494.0,494.0,494.0,494.0,480.0,480.0,480.0,480.0,498.0,498.0,498.0,498.0,500.0,500.0,500.0,500.0,512.0,512.0,423.0,423.0,428.0,428.0,428.0,428.0,464.0,464.0,464.0,464.0,518.0,518.0,518.0,518.0,454.0,454.0,454.0,454.0,466.0,466.0,16.0,37.0,174.0,518.0,512.0,466.0,508.93333333333334,494.2,424.6666666666667,509.0,480.0,423.0,518.0,512.0,518.0
0,509.0,509.0,511.0,511.0,511.0,511.0,511.0,511.0,511.0,511.0,512.0,512.0,512.0,512.0,518.0,518.0,518.0,518.0,508.0,508.0,494.0,494.0,480.0,480.0,480.0,480.0,498.0,498.0,498.0,498.0,500.0,500.0,500.0,500.0,512.0,512.0,512.0,512.0,531.0,531.0,428.0,428.0,464.0,464.0,464.0,464.0,518.0,518.0,518.0,518.0,454.0,454.0,454.0,454.0,466.0,466.0,466.0,466.0,509.0,509.0,16.0,51.0,174.0,508.0,531.0,509.0,509.4222222222222,495.6666666666667,427.4,508.0,480.0,428.0,518.0,531.0,518.0
0,511.0,511.0,511.0,511.0,511.0,511.0,512.0,512.0,512.0,512.0,518.0,518.0,518.0,518.0,508.0,508.0,508.0,508.0,507.0,507.0,480.0,480.0,498.0,498.0,498.0,498.0,500.0,500.0,500.0,500.0,512.0,512.0,512.0,512.0,531.0,531.0,531.0,531.0,529.0,529.0,464.0,464.0,518.0,518.0,518.0,518.0,454.0,454.0,454.0,454.0,466.0,466.0,466.0,466.0,509.0,509.0,509.0,509.0,523.0,523.0,16.0,51.0,179.0,507.0,529.0,523.0,509.5777777777778,497.77777777777777,438.8,507.0,480.0,454.0,518.0,531.0,523.0
0,511.0,511.0,512.0,512.0,512.0,512.0,518.0,518.0,518.0,518.0,508.0,508.0,508.0,508.0,507.0,507.0,507.0,507.0,510.0,510.0,498.0,498.0,500.0,500.0,500.0,500.0,512.0,512.0,512.0,512.0,531.0,531.0,531.0,531.0,529.0,529.0,529.0,529.0,532.0,532.0,518.0,518.0,454.0,454.0,454.0,454.0,466.0,466.0,466.0,466.0,509.0,509.0,509.0,509.0,523.0,523.0,523.0,523.0,552.0,552.0,16.0,52.0,184.0,510.0,532.0,552.0,509.7111111111111,501.26666666666665,455.46666666666664,507.0,498.0,454.0,518.0,532.0,552.0
0,512.0,512.0,518.0,518.0,518.0,518.0,508.0,508.0,508.0,508.0,507.0,507.0,507.0,507.0,510.0,510.0,510.0,510.0,507.0,507.0,500.0,500.0,512.0,512.0,512.0,512.0,531.0,531.0,531.0,531.0,529.0,529.0,529.0,529.0,532.0,532.0,532.0,532.0,516.0,516.0,454.0,454.0,466.0,466.0,466.0,466.0,509.0,509.0,509.0,509.0,523.0,523.0,523.0,523.0,552.0,552.0,552.0,552.0,597.0,597.0,16.0,52.0,217.0,507.0,516.0,597.0,509.9555555555556,504.53333333333336,473.55555555555554,507.0,500.0,454.0,518.0,532.0,597.0
0,518.0,518.0,518.0,508.0,508.0,508.0,508.0,507.0,507.0,507.0,507.0,510.0,510.0,510.0,510.0,507.0,507.0,507.0,509.0,509.0,512.0,512.0,512.0,531.0,531.0,531.0,531.0,529.0,529.0,529.0,529.0,532.0,532.0,532.0,532.0,516.0,516.0,516.0,538.0,538.0,466.0,466.0,466.0,509.0,509.0,509.0,509.0,523.0,523.0,523.0,523.0,552.0,552.0,552.0,552.0,597.0,597.0,597.0,619.0,619.0,11.0,58.0,212.0,509.0,538.0,619.0,510.3777777777778,506.5777777777778,489.0,507.0,512.0,466.0,518.0,538.0,619.0
0,508.0,508.0,508.0,507.0,507.0,507.0,507.0,510.0,510.0,510.0,510.0,507.0,507.0,507.0,509.0,509.0,509.0,509.0,509.0,509.0,531.0,531.0,531.0,529.0,529.0,529.0,529.0,532.0,532.0,532.0,532.0,516.0,516.0,516.0,538.0,538.0,538.0,538.0,522.0,522.0,509.0,509.0,509.0,523.0,523.0,523.0,523.0,552.0,552.0,552.0,552.0,597.0,597.0,597.0,619.0,619.0,619.0,619.0,586.0,586.0,11.0,58.0,196.0,509.0,522.0,586.0,510.55555555555554,510.4888888888889,506.3777777777778,507.0,516.0,509.0,510.0,538.0,619.0
0,507.0,507.0,507.0,507.0,510.0,510.0,510.0,510.0,507.0,507.0,507.0,509.0,509.0,509.0,509.0,509.0,509.0,509.0,509.0,509.0,529.0,529.0,529.0,529.0,532.0,532.0,532.0,532.0,516.0,516.0,516.0,538.0,538.0,538.0,538.0,522.0,522.0,522.0,522.0,515.0,523.0,523.0,523.0,523.0,552.0,552.0,552.0,552.0,597.0,597.0,597.0,619.0,619.0,619.0,619.0,586.0,586.0,586.0,586.0,500.0,11.0,58.0,196.0,509.0,515.0,500.0,510.22222222222223,513.0666666666667,515.3333333333334,507.0,515.0,500.0,510.0,538.0,619.0
0,510.0,510.0,510.0,510.0,507.0,507.0,507.0,509.0,509.0,509.0,509.0,509.0,509.0,509.0,509.0,509.0,509.0,509.0,509.0,509.0,532.0,532.0,532.0,532.0,516.0,516.0,516.0,538.0,538.0,538.0,538.0,522.0,522.0,522.0,522.0,515.0,515.0,515.0,524.0,524.0,552.0,552.0,552.0,552.0,597.0,597.0,597.0,619.0,619.0,619.0,619.0,586.0,586.0,586.0,586.0,500.0,500.0,500.0,401.0,401.0,11.0,58.0,218.0,509.0,524.0,401.0,510.1111111111111,515.6222222222223,517.4444444444445,507.0,515.0,401.0,510.0,538.0,619.0
0,507.0,507.0,509.0,509.0,509.0,509.0,509.0,509.0,509.0,509.0,509.0,509.0,509.0,509.0,509.0,509.0,509.0,511.0,511.0,511.0,516.0,516.0,538.0,538.0,538.0,538.0,522.0,522.0,522.0,522.0,515.0,515.0,515.0,524.0,524.0,524.0,524.0,516.0,516.0,516.0,597.0,597.0,619.0,619.0,619.0,619.0,586.0,586.0,586.0,586.0,500.0,500.0,500.0,401.0,401.0,401.0,401.0,307.0,307.0,307.0,11.0,40.0,312.0,511.0,516.0,307.0,510.06666666666666,519.6666666666666,504.97777777777776,507.0,515.0,307.0,511.0,538.0,619.0
0,509.0,509.0,509.0,509.0,509.0,509.0,509.0,509.0,509.0,509.0,509.0,509.0,511.0,511.0,511.0,511.0,511.0,511.0,512.0,512.0,538.0,522.0,522.0,522.0,522.0,515.0,515.0,515.0,524.0,524.0,524.0,524.0,516.0,516.0,516.0,516.0,516.0,516.0,507.0,507.0,619.0,586.0,586.0,586.0,586.0,500.0,500.0,500.0,401.0,401.0,401.0,401.0,307.0,307.0,307.0,307.0,307.0,307.0,326.0,326.0,11.0,38.0,312.0,512.0,507.0,326.0,510.0888888888889,521.0666666666667,486.64444444444445,509.0,507.0,307.0,512.0,538.0,619.0
0,509.0,509.0,509.0,509.0,509.0,509.0,509.0,509.0,511.0,511.0,511.0,511.0,511.0,511.0,512.0,512.0,512.0,512.0,504.0,504.0,522.0,515.0,515.0,515.0,524.0,524.0,524.0,524.0,516.0,516.0,516.0,516.0,516.0,516.0,507.0,507.0,507.0,507.0,507.0,507.0,586.0,500.0,500.0,500.0,401.0,401.0,401.0,401.0,307.0,307.0,307.0,307.0,307.0,307.0,326.0,326.0,326.0,326.0,393.0,393.0,14.0,31.0,312.0,504.0,507.0,393.0,509.6,521.5777777777778,475.1333333333333,504.0,507.0,307.0,512.0,524.0,586.0
0,509.0,509.0,509.0,509.0,511.0,511.0,511.0,511.0,511.0,511.0,512.0,512.0,512.0,512.0,504.0,504.0,504.0,504.0,498.0,498.0,524.0,524.0,524.0,524.0,516.0,516.0,516.0,516.0,516.0,516.0,507.0,507.0,507.0,507.0,507.0,507.0,507.0,507.0,523.0,523.0,401.0,401.0,401.0,401.0,307.0,307.0,307.0,307.0,307.0,307.0,326.0,326.0,326.0,326.0,393.0,393.0,393.0,393.0,444.0,444.0,14.0,31.0,312.0,498.0,523.0,444.0,508.31111111111113,521.4222222222222,469.9555555555556,498.0,507.0,307.0,512.0,524.0,444.0
0,511.0,511.0,511.0,511.0,511.0,511.0,512.0,512.0,512.0,512.0,504.0,504.0,504.0,504.0,498.0,498.0,498.0,498.0,500.0,500.0,516.0,516.0,516.0,516.0,516.0,516.0,507.0,507.0,507.0,507.0,507.0,507.0,507.0,507.0,523.0,523.0,523.0,523.0,511.0,511.0,307.0,307.0,307.0,307.0,307.0,307.0,326.0,326.0,326.0,326.0,393.0,393.0,393.0,393.0,444.0,444.0,444.0,444.0,462.0,462.0,14.0,31.0,312.0,500.0,511.0,462.0,507.53333333333336,520.2222222222222,464.6666666666667,498.0,507.0,307.0,512.0,523.0,462.0
0,511.0,511.0,512.0,512.0,512.0,512.0,504.0,504.0,504.0,504.0,498.0,498.0,498.0,498.0,500.0,500.0,500.0,500.0,504.0,504.0,516.0,516.0,507.0,507.0,507.0,507.0,507.0,507.0,507.0,507.0,523.0,523.0,523.0,523.0,511.0,511.0,511.0,511.0,502.0,502.0,307.0,307.0,326.0,326.0,326.0,326.0,393.0,393.0,393.0,393.0,444.0,444.0,444.0,444.0,462.0,462.0,462.0,462.0,482.0,482.0,14.0,36.0,312.0,504.0,502.0,482.0,507.02222222222224,518.1555555555556,459.4888888888889,498.0,502.0,307.0,512.0,523.0,482.0
0,512.0,512.0,504.0,504.0,504.0,504.0,498.0,498.0,498.0,498.0,500.0,500.0,500.0,500.0,504.0,504.0,504.0,504.0,509.0,509.0,507.0,507.0,507.0,507.0,507.0,507.0,523.0,523.0,523.0,523.0,511.0,511.0,511.0,511.0,502.0,502.0,502.0,502.0,491.0,491.0,326.0,326.0,393.0,393.0,393.0,393.0,444.0,444.0,444.0,444.0,462.0,462.0,462.0,462.0,482.0,482.0,482.0,482.0,501.0,501.0,14.0,47.0,312.0,509.0,491.0,501.0,506.77777777777777,515.3555555555556,453.1111111111111,498.0,491.0,326.0,512.0,523.0,501.0
0,504.0,504.0,504.0,498.0,498.0,498.0,498.0,500.0,500.0,500.0,500.0,504.0,504.0,504.0,504.0,509.0,509.0,509.0,509.0,514.0,507.0,507.0,507.0,523.0,523.0,523.0,523.0,511.0,511.0,511.0,511.0,502.0,502.0,502.0,502.0,491.0,491.0,491.0,491.0,486.0,393.0,393.0,393.0,444.0,444.0,444.0,444.0,462.0,462.0,462.0,462.0,482.0,482.0,482.0,482.0,501.0,501.0,501.0,501.0,497.0,16.0,52.0,312.0,514.0,486.0,497.0,506.97777777777776,513.0888888888888,446.1333333333333,498.0,486.0,393.0,514.0,523.0,501.0
0,498.0,498.0,498.0,500.0,500.0,500.0,500.0,504.0,504.0,504.0,504.0,509.0,509.0,509.0,509.0,514.0,514.0,514.0,502.0,502.0,523.0,523.0,523.0,511.0,511.0,511.0,511.0,502.0,502.0,502.0,502.0,491.0,491.0,491.0,491.0,486.0,486.0,486.0,483.0,483.0,444.0,444.0,444.0,462.0,462.0,462.0,462.0,482.0,482.0,482.0,482.0,501.0,501.0,501.0,501.0,497.0,497.0,497.0,493.0,493.0,16.0,41.0,279.0,502.0,483.0,493.0,506.8888888888889,508.68888888888887,435.84444444444443,498.0,483.0,444.0,514.0,523.0,501.0
0,500.0,500.0,500.0,504.0,504.0,504.0,504.0,509.0,509.0,509.0,509.0,514.0,514.0,514.0,502.0,502.0,502.0,502.0,512.0,512.0,511.0,511.0,511.0,502.0,502.0,502.0,502.0,491.0,491.0,491.0,491.0,486.0,486.0,486.0,483.0,483.0,483.0,483.0,478.0,478.0,462.0,462.0,462.0,482.0,482.0,482.0,482.0,501.0,501.0,501.0,501.0,497.0,497.0,497.0,493.0,493.0,493.0,493.0,486.0,486.0,16.0,46.0,194.0,512.0,478.0,486.0,506.7111111111111,505.15555555555557,429.1777777777778,500.0,478.0,462.0,514.0,511.0,501.0
0,504.0,504.0,504.0,504.0,509.0,509.0,509.0,509.0,514.0,514.0,514.0,502.0,502.0,502.0,502.0,512.0,512.0,512.0,514.0,514.0,502.0,502.0,502.0,502.0,491.0,491.0,491.0,491.0,486.0,486.0,486.0,483.0,483.0,483.0,483.0,478.0,478.0,478.0,476.0,476.0,482.0,482.0,482.0,482.0,501.0,501.0,501.0,501.0,497.0,497.0,497.0,493.0,493.0,493.0,493.0,486.0,486.0,486.0,510.0,510.0,16.0,48.0,203.0,514.0,476.0,510.0,507.0,502.4,431.5111111111111,502.0,476.0,482.0,514.0,502.0,510.0
0,504.0,509.0,509.0,509.0,509.0,514.0,514.0,514.0,502.0,502.0,502.0,502.0,512.0,512.0,512.0,514.0,514.0,514.0,508.0,508.0,502.0,491.0,491.0,491.0,491.0,486.0,486.0,486.0,483.0,483.0,483.0,483.0,478.0,478.0,478.0,476.0,476.0,476.0,503.0,503.0,482.0,501.0,501.0,501.0,501.0,497.0,497.0,497.0,493.0,493.0,493.0,493.0,486.0,486.0,486.0,510.0,510.0,510.0,566.0,566.0,16.0,47.0,259.0,508.0,503.0,566.0,507.06666666666666,500.4,441.26666666666665,502.0,476.0,482.0,514.0,503.0,566.0
0,514.0,502.0,502.0,502.0,502.0,512.0,512.0,512.0,514.0,514.0,514.0,508.0,508.0,508.0,508.0,508.0,508.0,508.0,512.0,512.0,486.0,483.0,483.0,483.0,483.0,478.0,478.0,478.0,476.0,476.0,476.0,503.0,503.0,503.0,503.0,503.0,503.0,503.0,508.0,508.0,497.0,493.0,493.0,493.0,493.0,486.0,486.0,486.0,510.0,510.0,510.0,566.0,566.0,566.0,566.0,566.0,566.0,566.0,612.0,612.0,16.0,47.0,286.0,512.0,508.0,612.0,506.75555555555553,498.8,483.1777777777778,502.0,476.0,486.0,514.0,508.0,612.0
0,502.0,502.0,512.0,512.0,512.0,514.0,514.0,514.0,508.0,508.0,508.0,508.0,508.0,508.0,508.0,512.0,512.0,512.0,509.0,509.0,483.0,483.0,478.0,478.0,478.0,476.0,476.0,476.0,503.0,503.0,503.0,503.0,503.0,503.0,503.0,508.0,508.0,508.0,504.0,504.0,493.0,493.0,486.0,486.0,486.0,510.0,510.0,510.0,566.0,566.0,566.0,566.0,566.0,566.0,566.0,612.0,612.0,612.0,648.0,648.0,16.0,47.0,255.0,509.0,504.0,648.0,506.6222222222222,498.68888888888887,503.84444444444443,502.0,476.0,486.0,514.0,508.0,648.0
0,512.0,514.0,514.0,514.0,508.0,508.0,508.0,508.0,508.0,508.0,508.0,512.0,512.0,512.0,509.0,509.0,509.0,509.0,509.0,509.0,478.0,476.0,476.0,476.0,503.0,503.0,503.0,503.0,503.0,503.0,503.0,508.0,508.0,508.0,504.0,504.0,504.0,504.0,515.0,515.0,486.0,510.0,510.0,510.0,566.0,566.0,566.0,566.0,566.0,566.0,566.0,612.0,612.0,612.0,648.0,648.0,648.0,648.0,684.0,684.0,16.0,47.0,240.0,509.0,515.0,684.0,507.06666666666666,498.9111111111111,528.1111111111111,508.0,476.0,486.0,514.0,515.0,684.0
0,514.0,508.0,508.0,508.0,508.0,508.0,508.0,508.0,512.0,512.0,512.0,509.0,509.0,509.0,509.0,509.0,509.0,509.0,513.0,513.0,476.0,503.0,503.0,503.0,503.0,503.0,503.0,503.0,508.0,508.0,508.0,504.0,504.0,504.0,504.0,515.0,515.0,515.0,530.0,530.0,510.0,566.0,566.0,566.0,566.0,566.0,566.0,566.0,612.0,612.0,612.0,648.0,648.0,648.0,648.0,684.0,684.0,684.0,708.0,708.0,16.0,54.0,264.0,513.0,530.0,708.0,507.97777777777776,499.0444444444444,545.1777777777778,508.0,476.0,510.0,514.0,530.0,708.0
0,508.0,508.0,508.0,508.0,508.0,512.0,512.0,512.0,509.0,509.0,509.0,509.0,509.0,509.0,509.0,513.0,513.0,513.0,504.0,504.0,503.0,503.0,503.0,503.0,503.0,508.0,508.0,508.0,504.0,504.0,504.0,504.0,515.0,515.0,515.0,530.0,530.0,530.0,535.0,535.0,566.0,566.0,566.0,566.0,566.0,612.0,612.0,612.0,648.0,648.0,648.0,648.0,684.0,684.0,684.0,708.0,708.0,708.0,695.0,695.0,14.0,59.0,246.0,504.0,535.0,695.0,508.4888888888889,500.26666666666665,561.4,504.0,503.0,566.0,513.0,535.0,708.0
0,508.0,508.0,512.0,512.0,512.0,509.0,509.0,509.0,509.0,509.0,509.0,509.0,513.0,513.0,513.0,504.0,504.0,504.0,505.0,505.0,503.0,503.0,508.0,508.0,508.0,504.0,504.0,504.0,504.0,515.0,515.0,515.0,530.0,530.0,530.0,535.0,535.0,535.0,536.0,536.0,566.0,566.0,612.0,612.0,612.0,648.0,648.0,648.0,648.0,684.0,684.0,684.0,708.0,708.0,708.0,695.0,695.0,695.0,637.0,637.0,12.0,60.0,226.0,505.0,536.0,637.0,508.7111111111111,502.1111111111111,573.9111111111112,504.0,503.0,566.0,513.0,536.0,708.0
0,512.0,509.0,509.0,509.0,509.0,509.0,509.0,509.0,513.0,513.0,513.0,504.0,504.0,504.0,505.0,505.0,505.0,505.0,505.0,510.0,508.0,504.0,504.0,504.0,504.0,515.0,515.0,515.0,530.0,530.0,530.0,535.0,535.0,535.0,536.0,536.0,536.0,536.0,536.0,531.0,612.0,648.0,648.0,648.0,648.0,684.0,684.0,684.0,708.0,708.0,708.0,695.0,695.0,695.0,637.0,637.0,637.0,637.0,637.0,560.0,12.0,60.0,222.0,510.0,531.0,560.0,508.8,505.26666666666665,585.5555555555555,504.0,504.0,560.0,513.0,536.0,708.0
0,509.0,509.0,509.0,509.0,513.0,513.0,513.0,504.0,504.0,504.0,505.0,505.0,505.0,505.0,505.0,510.0,510.0,510.0,510.0,510.0,504.0,515.0,515.0,515.0,530.0,530.0,530.0,535.0,535.0,535.0,536.0,536.0,536.0,536.0,536.0,531.0,531.0,531.0,527.0,527.0,648.0,684.0,684.0,684.0,708.0,708.0,708.0,695.0,695.0,695.0,637.0,637.0,637.0,637.0,637.0,560.0,560.0,560.0,511.0,511.0,12.0,60.0,222.0,510.0,527.0,511.0,508.77777777777777,508.75555555555553,588.7111111111111,504.0,504.0,511.0,513.0,536.0,708.0
0,509.0,513.0,513.0,513.0,504.0,504.0,504.0,505.0,505.0,505.0,505.0,505.0,510.0,510.0,510.0,510.0,510.0,510.0,510.0,512.0,515.0,530.0,530.0,530.0,535.0,535.0,535.0,536.0,536.0,536.0,536.0,536.0,531.0,531.0,531.0,527.0,527.0,527.0,527.0,509.0,684.0,708.0,708.0,708.0,695.0,695.0,695.0,637.0,637.0,637.0,637.0,637.0,560.0,560.0,560.0,511.0,511.0,511.0,511.0,532.0,12.0,60.0,222.0,512.0,509.0,532.0,508.8222222222222,511.15555555555557,590.2,504.0,509.0,511.0,513.0,536.0,708.0
0,504.0,504.0,505.0,505.0,505.0,505.0,505.0,510.0,510.0,510.0,510.0,510.0,510.0,510.0,512.0,512.0,512.0,512.0,510.0,510.0,535.0,535.0,536.0,536.0,536.0,536.0,536.0,531.0,531.0,531.0,527.0,527.0,527.0,527.0,509.0,509.0,509.0,509.0,508.0,508.0,695.0,695.0,637.0,637.0,637.0,637.0,637.0,560.0,560.0,560.0,511.0,511.0,511.0,511.0,532.0,532.0,532.0,532.0,572.0,572.0,10.0,60.0,222.0,510.0,508.0,572.0,509.4,514.2222222222222,596.6222222222223,504.0,508.0,511.0,512.0,536.0,695.0
0,505.0,505.0,505.0,505.0,510.0,510.0,510.0,510.0,510.0,510.0,510.0,512.0,512.0,512.0,512.0,510.0,510.0,510.0,508.0,508.0,536.0,536.0,536.0,536.0,531.0,531.0,531.0,527.0,527.0,527.0,527.0,509.0,509.0,509.0,509.0,508.0,508.0,508.0,509.0,509.0,637.0,637.0,637.0,637.0,560.0,560.0,560.0,511.0,511.0,511.0,511.0,532.0,532.0,532.0,532.0,572.0,572.0,572.0,599.0,599.0,10.0,60.0,198.0,508.0,509.0,599.0,509.0888888888889,516.3555555555556,602.4888888888889,505.0,508.0,511.0,512.0,536.0,637.0
0,505.0,510.0,510.0,510.0,510.0,510.0,510.0,510.0,512.0,512.0,512.0,512.0,510.0,510.0,510.0,508.0,508.0,508.0,510.0,510.0,536.0,531.0,531.0,531.0,527.0,527.0,527.0,527.0,509.0,509.0,509.0,509.0,508.0,508.0,508.0,509.0,509.0,509.0,491.0,491.0,637.0,560.0,560.0,560.0,511.0,511.0,511.0,511.0,532.0,532.0,532.0,532.0,572.0,572.0,572.0,599.0,599.0,599.0,613.0,613.0,9.0,45.0,197.0,510.0,491.0,613.0,509.0444444444444,516.5555555555555,606.5555555555555,505.0,491.0,511.0,512.0,536.0,637.0
0,510.0,510.0,510.0,510.0,512.0,512.0,512.0,512.0,510.0,510.0,510.0,508.0,508.0,508.0,510.0,510.0,510.0,510.0,510.0,508.0,527.0,527.0,527.0,527.0,509.0,509.0,509.0,509.0,508.0,508.0,508.0,509.0,509.0,509.0,491.0,491.0,491.0,491.0,491.0,490.0,511.0,511.0,511.0,511.0,532.0,532.0,532.0,532.0,572.0,572.0,572.0,599.0,599.0,599.0,613.0,613.0,613.0,613.0,613.0,636.0,9.0,46.0,197.0,508.0,490.0,636.0,509.1777777777778,515.4666666666667,611.2444444444444,508.0,490.0,511.0,512.0,527.0,636.0
0,510.0,512.0,512.0,512.0,512.0,510.0,510.0,510.0,508.0,508.0,508.0,510.0,510.0,510.0,510.0,510.0,508.0,508.0,507.0,507.0,527.0,509.0,509.0,509.0,509.0,508.0,508.0,508.0,509.0,509.0,509.0,491.0,491.0,491.0,491.0,491.0,490.0,490.0,498.0,498.0,511.0,532.0,532.0,532.0,532.0,572.0,572.0,572.0,599.0,599.0,599.0,613.0,613.0,613.0,613.0,613.0,636.0,636.0,606.0,606.0,9.0,46.0,197.0,507.0,498.0,606.0,508.9555555555556,514.7333333333333,612.5333333333333,507.0,490.0,511.0,512.0,527.0,636.0
0,512.0,512.0,510.0,510.0,510.0,508.0,508.0,508.0,510.0,510.0,510.0,510.0,510.0,508.0,508.0,507.0,507.0,507.0,508.0,508.0,509.0,509.0,508.0,508.0,508.0,509.0,509.0,509.0,491.0,491.0,491.0,491.0,491.0,490.0,490.0,498.0,498.0,498.0,500.0,500.0,532.0,532.0,572.0,572.0,572.0,599.0,599.0,599.0,613.0,613.0,613.0,613.0,613.0,636.0,636.0,606.0,606.0,606.0,541.0,541.0,9.0,46.0,197.0,508.0,500.0,541.0,508.8,514.3333333333334,607.6444444444444,507.0,490.0,532.0,512.0,509.0,636.0
0,510.0,508.0,508.0,508.0,510.0,510.0,510.0,510.0,510.0,508.0,508.0,507.0,507.0,507.0,508.0,508.0,508.0,508.0,508.0,508.0,508.0,509.0,509.0,509.0,491.0,491.0,491.0,491.0,491.0,490.0,490.0,498.0,498.0,498.0,500.0,500.0,500.0,500.0,500.0,487.0,572.0,599.0,599.0,599.0,613.0,613.0,613.0,613.0,613.0,636.0,636.0,606.0,606.0,606.0,541.0,541.0,541.0,541.0,541.0,456.0,9.0,49.0,252.0,508.0,487.0,456.0,508.7111111111111,513.2,594.6444444444444,507.0,487.0,456.0,510.0,509.0,636.0
0,508.0,510.0,510.0,510.0,510.0,510.0,508.0,508.0,507.0,507.0,507.0,508.0,508.0,508.0,508.0,508.0,508.0,508.0,505.0,505.0,509.0,491.0,491.0,491.0,491.0,491.0,490.0,490.0,498.0,498.0,498.0,500.0,500.0,500.0,500.0,500.0,487.0,487.0,504.0,504.0,599.0,613.0,613.0,613.0,613.0,613.0,636.0,636.0,606.0,606.0,606.0,541.0,541.0,541.0,541.0,541.0,456.0,456.0,396.0,396.0,9.0,49.0,312.0,505.0,504.0,396.0,508.3333333333333,511.4222222222222,575.7111111111111,505.0,487.0,396.0,510.0,509.0,636.0
0,510.0,510.0,510.0,508.0,508.0,507.0,507.0,507.0,508.0,508.0,508.0,508.0,508.0,508.0,508.0,505.0,505.0,505.0,501.0,501.0,491.0,491.0,491.0,490.0,490.0,498.0,498.0,498.0,500.0,500.0,500.0,500.0,500.0,487.0,487.0,504.0,504.0,504.0,494.0,494.0,613.0,613.0,613.0,636.0,636.0,606.0,606.0,606.0,541.0,541.0,541.0,541.0,541.0,456.0,456.0,396.0,396.0,396.0,360.0,360.0,11.0,49.0,335.0,501.0,494.0,360.0,508.02222222222224,509.02222222222224,553.8888888888889,501.0,487.0,360.0,510.0,504.0,636.0
0,508.0,507.0,507.0,507.0,508.0,508.0,508.0,508.0,508.0,508.0,508.0,505.0,505.0,505.0,501.0,501.0,501.0,501.0,507.0,507.0,490.0,498.0,498.0,498.0,500.0,500.0,500.0,500.0,500.0,487.0,487.0,504.0,504.0,504.0,494.0,494.0,494.0,494.0,496.0,496.0,636.0,606.0,606.0,606.0,541.0,541.0,541.0,541.0,541.0,456.0,456.0,396.0,396.0,396.0,360.0,360.0,360.0,360.0,295.0,295.0,11.0,49.0,342.0,507.0,496.0,295.0,507.9555555555556,505.4,525.0888888888888,501.0,487.0,295.0,508.0,504.0,636.0
0,508.0,508.0,508.0,508.0,508.0,508.0,508.0,505.0,505.0,505.0,501.0,501.0,501.0,501.0,507.0,507.0,507.0,507.0,505.0,505.0,500.0,500.0,500.0,500.0,500.0,487.0,487.0,504.0,504.0,504.0,494.0,494.0,494.0,494.0,496.0,496.0,496.0,496.0,485.0,485.0,541.0,541.0,541.0,541.0,541.0,456.0,456.0,396.0,396.0,396.0,360.0,360.0,360.0,360.0,295.0,295.0,295.0,295.0,343.0,343.0,11.0,46.0,341.0,505.0,485.0,343.0,507.8222222222222,501.5777777777778,500.24444444444447,501.0,485.0,295.0,508.0,504.0,541.0
0,508.0,508.0,508.0,505.0,505.0,505.0,501.0,501.0,501.0,501.0,507.0,507.0,507.0,507.0,505.0,505.0,505.0,505.0,503.0,503.0,500.0,487.0,487.0,504.0,504.0,504.0,494.0,494.0,494.0,494.0,496.0,496.0,496.0,496.0,485.0,485.0,485.0,485.0,503.0,503.0,541.0,456.0,456.0,396.0,396.0,396.0,360.0,360.0,360.0,360.0,295.0,295.0,295.0,295.0,343.0,343.0,343.0,343.0,443.0,443.0,11.0,42.0,341.0,503.0,503.0,443.0,507.2888888888889,498.55555555555554,488.6666666666667,501.0,485.0,295.0,508.0,504.0,541.0
0,505.0,505.0,505.0,501.0,501.0,501.0,501.0,507.0,507.0,507.0,507.0,505.0,505.0,505.0,505.0,503.0,503.0,503.0,503.0,510.0,504.0,504.0,504.0,494.0,494.0,494.0,494.0,496.0,496.0,496.0,496.0,485.0,485.0,485.0,485.0,503.0,503.0,503.0,503.0,507.0,396.0,396.0,396.0,360.0,360.0,360.0,360.0,295.0,295.0,295.0,295.0,343.0,343.0,343.0,343.0,443.0,443.0,443.0,443.0,489.0,11.0,24.0,341.0,510.0,507.0,489.0,506.8888888888889,497.84444444444443,484.22222222222223,501.0,485.0,295.0,510.0,507.0,489.0
0,501.0,501.0,501.0,507.0,507.0,507.0,507.0,505.0,505.0,505.0,505.0,503.0,503.0,503.0,503.0,510.0,510.0,510.0,508.0,508.0,494.0,494.0,494.0,496.0,496.0,496.0,496.0,485.0,485.0,485.0,485.0,503.0,503.0,503.0,503.0,507.0,507.0,507.0,504.0,504.0,360.0,360.0,360.0,295.0,295.0,295.0,295.0,343.0,343.0,343.0,343.0,443.0,443.0,443.0,443.0,489.0,489.0,489.0,525.0,525.0,9.0,24.0,341.0,508.0,504.0,525.0,506.7111111111111,497.5777777777778,480.22222222222223,501.0,485.0,295.0,510.0,507.0,525.0
0,501.0,507.0,507.0,507.0,507.0,505.0,505.0,505.0,505.0,503.0,503.0,503.0,503.0,510.0,510.0,510.0,508.0,508.0,508.0,508.0,494.0,496.0,496.0,496.0,496.0,485.0,485.0,485.0,485.0,503.0,503.0,503.0,503.0,507.0,507.0,507.0,504.0,504.0,504.0,504.0,360.0,295.0,295.0,295.0,295.0,343.0,343.0,343.0,343.0,443.0,443.0,443.0,443.0,489.0,489.0,489.0,525.0,525.0,525.0,525.0,9.0,24.0,341.0,508.0,504.0,525.0,506.6666666666667,497.3777777777778,477.53333333333336,501.0,485.0,295.0,510.0,507.0,525.0
0,507.0,505.0,505.0,505.0,505.0,503.0,503.0,503.0,503.0,510.0,510.0,510.0,508.0,508.0,508.0,508.0,509.0,509.0,509.0,508.0,496.0,485.0,485.0,485.0,485.0,503.0,503.0,503.0,503.0,507.0,507.0,507.0,504.0,504.0,504.0,504.0,511.0,511.0,511.0,530.0,295.0,343.0,343.0,343.0,343.0,443.0,443.0,443.0,443.0,489.0,489.0,489.0,525.0,525.0,525.0,525.0,547.0,547.0,547.0,580.0,9.0,45.0,341.0,508.0,530.0,580.0,506.64444444444445,498.77777777777777,473.02222222222224,503.0,485.0,295.0,510.0,530.0,580.0
0,505.0,503.0,503.0,503.0,503.0,510.0,510.0,510.0,508.0,508.0,508.0,508.0,509.0,509.0,509.0,508.0,508.0,508.0,507.0,507.0,485.0,503.0,503.0,503.0,503.0,507.0,507.0,507.0,504.0,504.0,504.0,504.0,511.0,511.0,511.0,530.0,530.0,530.0,540.0,540.0,343.0,443.0,443.0,443.0,443.0,489.0,489.0,489.0,525.0,525.0,525.0,525.0,547.0,547.0,547.0,580.0,580.0,580.0,701.0,701.0,9.0,55.0,406.0,507.0,540.0,701.0,506.46666666666664,502.7111111111111,474.9555555555556,503.0,485.0,343.0,510.0,540.0,701.0
0,503.0,510.0,510.0,510.0,508.0,508.0,508.0,508.0,509.0,509.0,509.0,508.0,508.0,508.0,507.0,507.0,507.0,507.0,506.0,506.0,503.0,507.0,507.0,507.0,504.0,504.0,504.0,504.0,511.0,511.0,511.0,530.0,530.0,530.0,540.0,540.0,540.0,540.0,540.0,540.0,443.0,489.0,489.0,489.0,525.0,525.0,525.0,525.0,547.0,547.0,547.0,580.0,580.0,580.0,701.0,701.0,701.0,701.0,794.0,794.0,9.0,55.0,499.0,506.0,540.0,794.0,506.4,506.6222222222222,486.8666666666667,503.0,503.0,443.0,510.0,540.0,794.0
0,508.0,508.0,508.0,508.0,509.0,509.0,509.0,508.0,508.0,508.0,507.0,507.0,507.0,507.0,506.0,506.0,506.0,506.0,508.0,508.0,504.0,504.0,504.0,504.0,511.0,511.0,511.0,530.0,530.0,530.0,540.0,540.0,540.0,540.0,540.0,540.0,540.0,540.0,533.0,533.0,525.0,525.0,525.0,525.0,547.0,547.0,547.0,580.0,580.0,580.0,701.0,701.0,701.0,701.0,794.0,794.0,794.0,794.0,801.0,801.0,9.0,55.0,506.0,508.0,533.0,801.0,506.31111111111113,509.8666666666667,509.6666666666667,506.0,504.0,525.0,509.0,540.0,801.0
0,509.0,509.0,508.0,508.0,508.0,507.0,507.0,507.0,507.0,506.0,506.0,506.0,506.0,508.0,508.0,508.0,508.0,508.0,506.0,506.0,511.0,511.0,530.0,530.0,530.0,540.0,540.0,540.0,540.0,540.0,540.0,540.0,540.0,533.0,533.0,533.0,533.0,533.0,532.0,532.0,547.0,547.0,580.0,580.0,580.0,701.0,701.0,701.0,701.0,794.0,794.0,794.0,794.0,801.0,801.0,801.0,801.0,801.0,778.0,778.0,9.0,55.0,506.0,506.0,532.0,778.0,506.35555555555555,513.8888888888889,547.7555555555556,506.0,511.0,547.0,509.0,540.0,801.0
0,508.0,508.0,507.0,507.0,507.0,507.0,506.0,506.0,506.0,506.0,508.0,508.0,508.0,508.0,508.0,506.0,506.0,506.0,508.0,508.0,530.0,530.0,540.0,540.0,540.0,540.0,540.0,540.0,540.0,540.0,533.0,533.0,533.0,533.0,533.0,532.0,532.0,532.0,526.0,526.0,580.0,580.0,701.0,701.0,701.0,701.0,794.0,794.0,794.0,794.0,801.0,801.0,801.0,801.0,801.0,778.0,778.0,778.0,775.0,775.0,9.0,55.0,506.0,508.0,526.0,775.0,506.68888888888887,515.9333333333333,574.6888888888889,506.0,526.0,580.0,508.0,540.0,801.0
0,507.0,507.0,507.0,506.0,506.0,506.0,506.0,508.0,508.0,508.0,508.0,508.0,506.0,506.0,506.0,508.0,508.0,508.0,508.0,515.0,540.0,540.0,540.0,540.0,540.0,540.0,540.0,533.0,533.0,533.0,533.0,533.0,532.0,532.0,532.0,526.0,526.0,526.0,526.0,516.0,701.0,701.0,701.0,794.0,794.0,794.0,794.0,801.0,801.0,801.0,801.0,801.0,778.0,778.0,778.0,775.0,775.0,775.0,775.0,637.0,12.0,55.0,506.0,515.0,516.0,637.0,507.1777777777778,517.8,600.7333333333333,506.0,516.0,637.0,515.0,540.0,801.0
0,506.0,506.0,506.0,506.0,508.0,508.0,508.0,508.0,508.0,506.0,506.0,506.0,508.0,508.0,508.0,508.0,515.0,515.0,515.0,515.0,540.0,540.0,540.0,540.0,533.0,533.0,533.0,533.0,533.0,532.0,532.0,532.0,526.0,526.0,526.0,526.0,516.0,516.0,516.0,509.0,794.0,794.0,794.0,794.0,801.0,801.0,801.0,801.0,801.0,778.0,778.0,778.0,775.0,775.0,775.0,775.0,637.0,637.0,637.0,464.0,12.0,55.0,458.0,515.0,509.0,464.0,507.7111111111111,518.9777777777778,619.6888888888889,506.0,509.0,464.0,515.0,540.0,801.0
0,506.0,508.0,508.0,508.0,508.0,508.0,506.0,506.0,506.0,508.0,508.0,508.0,508.0,515.0,515.0,515.0,515.0,515.0,511.0,511.0,540.0,533.0,533.0,533.0,533.0,533.0,532.0,532.0,532.0,526.0,526.0,526.0,526.0,516.0,516.0,516.0,509.0,509.0,509.0,509.0,794.0,801.0,801.0,801.0,801.0,801.0,778.0,778.0,778.0,775.0,775.0,775.0,775.0,637.0,637.0,637.0,464.0,464.0,346.0,346.0,12.0,55.0,458.0,511.0,509.0,346.0,508.2,520.5777777777778,622.5111111111111,506.0,509.0,346.0,515.0,540.0,801.0
0,508.0,508.0,506.0,506.0,506.0,508.0,508.0,508.0,508.0,515.0,515.0,515.0,515.0,515.0,511.0,511.0,511.0,511.0,503.0,503.0,533.0,533.0,532.0,532.0,532.0,526.0,526.0,526.0,526.0,516.0,516.0,516.0,509.0,509.0,509.0,509.0,509.0,509.0,515.0,515.0,801.0,801.0,778.0,778.0,778.0,775.0,775.0,775.0,775.0,637.0,637.0,637.0,464.0,464.0,346.0,346.0,346.0,346.0,305.0,305.0,12.0,37.0,496.0,503.0,515.0,305.0,508.5111111111111,521.7777777777778,614.2888888888889,503.0,509.0,305.0,515.0,533.0,801.0
0,506.0,508.0,508.0,508.0,508.0,515.0,515.0,515.0,515.0,515.0,511.0,511.0,511.0,511.0,503.0,503.0,503.0,503.0,505.0,505.0,532.0,526.0,526.0,526.0,526.0,516.0,516.0,516.0,509.0,509.0,509.0,509.0,509.0,509.0,515.0,515.0,515.0,515.0,510.0,510.0,778.0,775.0,775.0,775.0,775.0,637.0,637.0,637.0,464.0,464.0,346.0,346.0,346.0,346.0,305.0,305.0,305.0,305.0,361.0,361.0,12.0,36.0,496.0,505.0,510.0,361.0,508.1333333333333,522.3555555555556,601.4444444444445,503.0,509.0,305.0,515.0,532.0,778.0
0,508.0,508.0,515.0,515.0,515.0,515.0,515.0,511.0,511.0,511.0,511.0,503.0,503.0,503.0,503.0,505.0,505.0,505.0,505.0,505.0,526.0,526.0,516.0,516.0,516.0,509.0,509.0,509.0,509.0,509.0,509.0,515.0,515.0,515.0,515.0,510.0,510.0,510.0,510.0,500.0,775.0,775.0,637.0,637.0,637.0,464.0,464.0,346.0,346.0,346.0,346.0,305.0,305.0,305.0,305.0,361.0,361.0,361.0,361.0,494.0,12.0,40.0,496.0,505.0,500.0,494.0,507.93333333333334,522.5333333333333,593.4666666666667,503.0,500.0,305.0,515.0,526.0,775.0
0,515.0,515.0,515.0,515.0,511.0,511.0,511.0,511.0,503.0,503.0,503.0,503.0,505.0,505.0,505.0,505.0,505.0,505.0,508.0,508.0,516.0,516.0,509.0,509.0,509.0,509.0,509.0,509.0,515.0,515.0,515.0,515.0,510.0,510.0,510.0,510.0,500.0,500.0,483.0,483.0,637.0,637.0,464.0,464.0,346.0,346.0,346.0,346.0,305.0,305.0,305.0,305.0,361.0,361.0,361.0,361.0,494.0,494.0,620.0,620.0,12.0,57.0,496.0,508.0,483.0,620.0,507.8222222222222,521.2,596.0222222222222,503.0,483.0,305.0,515.0,516.0,637.0
0,515.0,511.0,511.0,511.0,511.0,503.0,503.0,503.0,503.0,505.0,505.0,505.0,505.0,505.0,505.0,508.0,508.0,508.0,504.0,504.0,509.0,509.0,509.0,509.0,509.0,515.0,515.0,515.0,515.0,510.0,510.0,510.0,510.0,500.0,500.0,483.0,483.0,483.0,492.0,492.0,464.0,346.0,346.0,346.0,346.0,305.0,305.0,305.0,305.0,361.0,361.0,361.0,361.0,494.0,494.0,620.0,620.0,620.0,678.0,678.0,12.0,57.0,496.0,504.0,492.0,678.0,507.6222222222222,518.8888888888889,602.0,503.0,483.0,305.0,515.0,515.0,678.0
0,511.0,511.0,503.0,503.0,503.0,503.0,505.0,505.0,505.0,505.0,505.0,505.0,508.0,508.0,508.0,504.0,504.0,504.0,504.0,506.0,509.0,509.0,515.0,515.0,515.0,515.0,510.0,510.0,510.0,510.0,500.0,500.0,483.0,483.0,483.0,492.0,492.0,492.0,492.0,493.0,346.0,346.0,305.0,305.0,305.0,305.0,361.0,361.0,361.0,361.0,494.0,494.0,620.0,620.0,620.0,678.0,678.0,678.0,678.0,591.0,12.0,57.0,496.0,504.0,492.0,678.0,507.4,515.9111111111112,603.1555555555556,503.0,483.0,305.0,511.0,515.0,678.0
0,503.0,503.0,505.0,505.0,505.0,505.0,505.0,505.0,508.0,508.0,508.0,504.0,504.0,504.0,504.0,504.0,506.0,506.0,506.0,506.0,515.0,515.0,510.0,510.0,510.0,510.0,500.0,500.0,483.0,483.0,483.0,492.0,492.0,492.0,492.0,492.0,493.0,493.0,493.0,493.0,305.0,305.0,361.0,361.0,361.0,361.0,494.0,494.0,620.0,620.0,620.0,678.0,678.0,678.0,678.0,678.0,591.0,591.0,591.0,591.0,12.0,57.0,496.0,506.0,493.0,591.0,507.35555555555555,511.73333333333335,589.2444444444444,503.0,483.0,305.0,508.0,515.0,678.0
0,505.0,505.0,505.0,505.0,505.0,508.0,508.0,508.0,504.0,504.0,504.0,504.0,504.0,506.0,506.0,506.0,506.0,511.0,511.0,511.0,510.0,510.0,510.0,500.0,500.0,483.0,483.0,483.0,492.0,492.0,492.0,492.0,492.0,493.0,493.0,493.0,493.0,501.0,498.0,498.0,361.0,361.0,361.0,494.0,494.0,620.0,620.0,620.0,678.0,678.0,678.0,678.0,678.0,591.0,591.0,591.0,591.0,551.0,499.0,499.0,12.0,50.0,496.0,511.0,498.0,499.0,507.64444444444445,509.15555555555557,570.5777777777778,504.0,483.0,361.0,511.0,510.0,678.0
0,505.0,505.0,508.0,508.0,508.0,504.0,504.0,504.0,504.0,504.0,506.0,506.0,506.0,506.0,511.0,511.0,511.0,511.0,511.0,508.0,500.0,500.0,483.0,483.0,483.0,492.0,492.0,492.0,492.0,492.0,493.0,493.0,493.0,493.0,501.0,498.0,498.0,498.0,498.0,487.0,494.0,494.0,620.0,620.0,620.0,678.0,678.0,678.0,678.0,678.0,591.0,591.0,591.0,591.0,551.0,499.0,499.0,499.0,499.0,453.0,12.0,50.0,496.0,508.0,487.0,453.0,507.77777777777777,506.5777777777778,549.4222222222222,504.0,483.0,453.0,511.0,501.0,678.0
0,508.0,504.0,504.0,504.0,504.0,504.0,506.0,506.0,506.0,506.0,511.0,511.0,511.0,511.0,511.0,508.0,508.0,508.0,509.0,509.0,483.0,492.0,492.0,492.0,492.0,492.0,493.0,493.0,493.0,493.0,501.0,498.0,498.0,498.0,498.0,487.0,487.0,487.0,466.0,466.0,620.0,678.0,678.0,678.0,678.0,678.0,591.0,591.0,591.0,591.0,551.0,499.0,499.0,499.0,499.0,453.0,453.0,453.0,417.0,417.0,12.0,60.0,470.0,509.0,466.0,417.0,507.9555555555556,501.6222222222222,518.4222222222222,504.0,466.0,417.0,511.0,501.0,678.0
0,504.0,504.0,506.0,506.0,506.0,506.0,511.0,511.0,511.0,511.0,511.0,508.0,508.0,508.0,509.0,509.0,509.0,509.0,506.0,506.0,492.0,492.0,493.0,493.0,493.0,493.0,501.0,498.0,498.0,498.0,498.0,487.0,487.0,487.0,466.0,466.0,466.0,466.0,480.0,480.0,678.0,678.0,591.0,591.0,591.0,591.0,551.0,499.0,499.0,499.0,499.0,453.0,453.0,453.0,417.0,417.0,417.0,417.0,403.0,403.0,12.0,50.0,373.0,506.0,480.0,403.0,507.9111111111111,496.9111111111111,485.97777777777776,504.0,466.0,403.0,511.0,501.0,678.0
0,506.0,506.0,511.0,511.0,511.0,511.0,511.0,508.0,508.0,508.0,509.0,509.0,509.0,509.0,506.0,506.0,506.0,506.0,507.0,507.0,493.0,493.0,501.0,498.0,498.0,498.0,498.0,487.0,487.0,487.0,466.0,466.0,466.0,466.0,480.0,480.0,480.0,480.0,469.0,469.0,591.0,591.0,551.0,499.0,499.0,499.0,499.0,453.0,453.0,453.0,417.0,417.0,417.0,417.0,403.0,403.0,403.0,403.0,416.0,416.0,12.0,49.0,373.0,507.0,469.0,416.0,507.15555555555557,493.3777777777778,469.6,506.0,466.0,403.0,511.0,501.0,591.0
0,511.0,511.0,511.0,511.0,508.0,508.0,508.0,509.0,509.0,509.0,509.0,506.0,506.0,506.0,506.0,507.0,507.0,507.0,507.0,512.0,498.0,498.0,498.0,498.0,487.0,487.0,487.0,466.0,466.0,466.0,466.0,480.0,480.0,480.0,480.0,469.0,469.0,469.0,469.0,484.0,499.0,499.0,499.0,499.0,453.0,453.0,453.0,417.0,417.0,417.0,417.0,403.0,403.0,403.0,403.0,416.0,416.0,416.0,416.0,419.0,9.0,49.0,373.0,512.0,484.0,419.0,506.9111111111111,491.0444444444444,471.7111111111111,506.0,466.0,403.0,512.0,498.0,499.0
0,508.0,508.0,508.0,509.0,509.0,509.0,509.0,506.0,506.0,506.0,506.0,507.0,507.0,507.0,507.0,512.0,512.0,512.0,509.0,509.0,487.0,487.0,487.0,466.0,466.0,466.0,466.0,480.0,480.0,480.0,480.0,469.0,469.0,469.0,469.0,484.0,484.0,484.0,508.0,508.0,453.0,453.0,453.0,417.0,417.0,417.0,417.0,403.0,403.0,403.0,403.0,416.0,416.0,416.0,416.0,419.0,419.0,419.0,428.0,428.0,9.0,49.0,373.0,509.0,508.0,428.0,507.22222222222223,489.6222222222222,480.4222222222222,506.0,466.0,403.0,512.0,508.0,453.0
0,509.0,509.0,509.0,509.0,506.0,506.0,506.0,506.0,507.0,507.0,507.0,507.0,512.0,512.0,512.0,509.0,509.0,509.0,509.0,508.0,466.0,466.0,466.0,466.0,480.0,480.0,480.0,480.0,469.0,469.0,469.0,469.0,484.0,484.0,484.0,508.0,508.0,508.0,508.0,539.0,417.0,417.0,417.0,417.0,403.0,403.0,403.0,403.0,416.0,416.0,416.0,416.0,419.0,419.0,419.0,428.0,428.0,428.0,428.0,453.0,8.0,73.0,317.0,508.0,539.0,453.0,507.55555555555554,489.9555555555556,487.93333333333334,506.0,466.0,403.0,512.0,539.0,453.0
0,506.0,506.0,506.0,506.0,507.0,507.0,507.0,507.0,512.0,512.0,512.0,509.0,509.0,509.0,509.0,508.0,508.0,508.0,507.0,507.0,480.0,480.0,480.0,480.0,469.0,469.0,469.0,469.0,484.0,484.0,484.0,508.0,508.0,508.0,508.0,539.0,539.0,539.0,525.0,525.0,403.0,403.0,403.0,403.0,416.0,416.0,416.0,416.0,419.0,419.0,419.0,428.0,428.0,428.0,428.0,453.0,453.0,453.0,478.0,478.0,8.0,73.0,275.0,507.0,525.0,478.0,507.77777777777777,492.1333333333333,494.26666666666665,506.0,469.0,403.0,512.0,539.0,478.0
0,507.0,507.0,507.0,507.0,512.0,512.0,512.0,509.0,509.0,509.0,509.0,508.0,508.0,508.0,507.0,507.0,507.0,507.0,505.0,505.0,469.0,469.0,469.0,469.0,484.0,484.0,484.0,508.0,508.0,508.0,508.0,539.0,539.0,539.0,525.0,525.0,525.0,525.0,546.0,546.0,416.0,416.0,416.0,416.0,419.0,419.0,419.0,428.0,428.0,428.0,428.0,453.0,453.0,453.0,478.0,478.0,478.0,478.0,492.0,492.0,8.0,80.0,275.0,505.0,546.0,492.0,507.6666666666667,496.4222222222222,485.06666666666666,505.0,469.0,416.0,512.0,546.0,492.0
0,512.0,512.0,512.0,509.0,509.0,509.0,509.0,508.0,508.0,508.0,507.0,507.0,507.0,507.0,505.0,505.0,505.0,505.0,508.0,508.0,484.0,484.0,484.0,508.0,508.0,508.0,508.0,539.0,539.0,539.0,525.0,525.0,525.0,525.0,546.0,546.0,546.0,546.0,534.0,534.0,419.0,419.0,419.0,428.0,428.0,428.0,428.0,453.0,453.0,453.0,478.0,478.0,478.0,478.0,492.0,492.0,492.0,492.0,503.0,503.0,8.0,80.0,275.0,508.0,534.0,503.0,507.8888888888889,500.68888888888887,469.02222222222224,505.0,484.0,419.0,512.0,546.0,503.0
0,509.0,509.0,509.0,508.0,508.0,508.0,507.0,507.0,507.0,507.0,505.0,505.0,505.0,505.0,508.0,508.0,508.0,508.0,506.0,506.0,508.0,508.0,508.0,539.0,539.0,539.0,525.0,525.0,525.0,525.0,546.0,546.0,546.0,546.0,534.0,534.0,534.0,534.0,534.0,534.0,428.0,428.0,428.0,453.0,453.0,453.0,478.0,478.0,478.0,478.0,492.0,492.0,492.0,492.0,503.0,503.0,503.0,503.0,507.0,507.0,7.0,80.0,188.0,506.0,534.0,507.0,508.02222222222224,504.35555555555555,459.44444444444446,505.0,508.0,428.0,509.0,546.0,507.0
0,508.0,508.0,508.0,507.0,507.0,507.0,507.0,505.0,505.0,505.0,505.0,508.0,508.0,508.0,508.0,506.0,506.0,506.0,508.0,508.0,539.0,539.0,539.0,525.0,525.0,525.0,525.0,546.0,546.0,546.0,546.0,534.0,534.0,534.0,534.0,534.0,534.0,534.0,528.0,528.0,453.0,453.0,453.0,478.0,478.0,478.0,478.0,492.0,492.0,492.0,492.0,503.0,503.0,503.0,503.0,507.0,507.0,507.0,510.0,510.0,7.0,80.0,107.0,508.0,528.0,510.0,507.8888888888889,506.53333333333336,456.9111111111111,505.0,525.0,453.0,508.0,546.0,510.0
0,507.0,507.0,507.0,507.0,505.0,505.0,505.0,505.0,508.0,508.0,508.0,508.0,506.0,506.0,506.0,508.0,508.0,508.0,507.0,507.0,525.0,525.0,525.0,525.0,546.0,546.0,546.0,546.0,534.0,534.0,534.0,534.0,534.0,534.0,534.0,528.0,528.0,528.0,514.0,514.0,478.0,478.0,478.0,478.0,492.0,492.0,492.0,492.0,503.0,503.0,503.0,503.0,507.0,507.0,507.0,510.0,510.0,510.0,519.0,519.0,7.0,80.0,116.0,507.0,514.0,519.0,507.64444444444445,507.9111111111111,458.0444444444444,505.0,514.0,478.0,508.0,546.0,519.0
0,505.0,505.0,505.0,505.0,508.0,508.0,508.0,508.0,506.0,506.0,506.0,508.0,508.0,508.0,507.0,507.0,507.0,507.0,509.0,509.0,546.0,546.0,546.0,546.0,534.0,534.0,534.0,534.0,534.0,534.0,534.0,528.0,528.0,528.0,514.0,514.0,514.0,514.0,515.0,515.0,492.0,492.0,492.0,492.0,503.0,503.0,503.0,503.0,507.0,507.0,507.0,510.0,510.0,510.0,519.0,519.0,519.0,519.0,515.0,515.0,7.0,80.0,116.0,509.0,515.0,515.0,507.6222222222222,510.8222222222222,464.53333333333336,505.0,514.0,492.0,509.0,546.0,519.0
0,505.0,508.0,508.0,508.0,508.0,506.0,506.0,506.0,508.0,508.0,508.0,507.0,507.0,507.0,507.0,509.0,509.0,509.0,509.0,512.0,546.0,534.0,534.0,534.0,534.0,534.0,534.0,534.0,528.0,528.0,528.0,514.0,514.0,514.0,514.0,515.0,515.0,515.0,515.0,493.0,492.0,503.0,503.0,503.0,503.0,507.0,507.0,507.0,510.0,510.0,510.0,519.0,519.0,519.0,519.0,515.0,515.0,515.0,515.0,479.0,7.0,77.0,116.0,512.0,493.0,479.0,507.68888888888887,513.6,470.26666666666665,505.0,493.0,479.0,512.0,546.0,519.0
0,508.0,506.0,506.0,506.0,508.0,508.0,508.0,507.0,507.0,507.0,507.0,509.0,509.0,509.0,509.0,512.0,512.0,512.0,509.0,509.0,534.0,534.0,534.0,534.0,528.0,528.0,528.0,514.0,514.0,514.0,514.0,515.0,515.0,515.0,515.0,493.0,493.0,493.0,486.0,486.0,503.0,507.0,507.0,507.0,510.0,510.0,510.0,519.0,519.0,519.0,519.0,515.0,515.0,515.0,515.0,479.0,479.0,479.0,429.0,429.0,7.0,77.0,103.0,509.0,486.0,429.0,508.0888888888889,514.4444444444445,474.8,506.0,486.0,429.0,512.0,534.0,519.0
0,508.0,508.0,508.0,507.0,507.0,507.0,507.0,509.0,509.0,509.0,509.0,512.0,512.0,512.0,509.0,509.0,509.0,509.0,507.0,507.0,528.0,528.0,528.0,514.0,514.0,514.0,514.0,515.0,515.0,515.0,515.0,493.0,493.0,493.0,486.0,486.0,486.0,486.0,482.0,482.0,510.0,510.0,510.0,519.0,519.0,519.0,519.0,515.0,515.0,515.0,515.0,479.0,479.0,479.0,429.0,429.0,429.0,429.0,353.0,353.0,7.0,64.0,166.0,507.0,482.0,353.0,508.22222222222223,515.8666666666667,474.26666666666665,507.0,482.0,353.0,512.0,528.0,519.0
0,507.0,507.0,509.0,509.0,509.0,509.0,512.0,512.0,512.0,509.0,509.0,509.0,509.0,509.0,507.0,507.0,507.0,507.0,508.0,508.0,514.0,514.0,515.0,515.0,515.0,515.0,493.0,493.0,493.0,486.0,486.0,486.0,486.0,486.0,482.0,482.0,482.0,482.0,502.0,502.0,519.0,519.0,515.0,515.0,515.0,515.0,479.0,479.0,479.0,429.0,429.0,429.0,429.0,429.0,353.0,353.0,353.0,353.0,311.0,311.0,7.0,64.0,208.0,508.0,502.0,311.0,507.84444444444443,515.4666666666667,464.6666666666667,507.0,482.0,311.0,512.0,515.0,519.0
0,509.0,509.0,509.0,512.0,512.0,512.0,509.0,509.0,509.0,509.0,509.0,507.0,507.0,507.0,507.0,508.0,508.0,508.0,509.0,509.0,515.0,515.0,515.0,493.0,493.0,493.0,486.0,486.0,486.0,486.0,486.0,482.0,482.0,482.0,482.0,502.0,502.0,502.0,494.0,494.0,515.0,515.0,515.0,479.0,479.0,479.0,429.0,429.0,429.0,429.0,429.0,353.0,353.0,353.0,353.0,311.0,311.0,311.0,281.0,281.0,7.0,64.0,238.0,509.0,494.0,281.0,507.84444444444443,514.0222222222222,454.97777777777776,507.0,482.0,281.0,512.0,515.0,515.0
0,512.0,512.0,509.0,509.0,509.0,509.0,509.0,507.0,507.0,507.0,507.0,508.0,508.0,508.0,509.0,509.0,509.0,509.0,506.0,506.0,493.0,493.0,486.0,486.0,486.0,486.0,486.0,482.0,482.0,482.0,482.0,502.0,502.0,502.0,494.0,494.0,494.0,494.0,505.0,505.0,479.0,479.0,429.0,429.0,429.0,429.0,429.0,353.0,353.0,353.0,353.0,311.0,311.0,311.0,281.0,281.0,281.0,281.0,299.0,299.0,7.0,64.0,238.0,506.0,505.0,299.0,507.84444444444443,511.1333333333333,439.3777777777778,506.0,482.0,281.0,512.0,505.0,479.0
0,509.0,509.0,509.0,507.0,507.0,507.0,507.0,508.0,508.0,508.0,509.0,509.0,509.0,509.0,506.0,506.0,506.0,506.0,505.0,505.0,486.0,486.0,486.0,482.0,482.0,482.0,482.0,502.0,502.0,502.0,494.0,494.0,494.0,494.0,505.0,505.0,505.0,505.0,503.0,503.0,429.0,429.0,429.0,353.0,353.0,353.0,353.0,311.0,311.0,311.0,281.0,281.0,281.0,281.0,299.0,299.0,299.0,299.0,354.0,354.0,7.0,64.0,238.0,505.0,503.0,354.0,507.8,508.3333333333333,425.2888888888889,505.0,482.0,281.0,509.0,505.0,429.0
0,507.0,507.0,507.0,508.0,508.0,508.0,509.0,509.0,509.0,509.0,506.0,506.0,506.0,506.0,505.0,505.0,505.0,505.0,505.0,505.0,482.0,482.0,482.0,502.0,502.0,502.0,494.0,494.0,494.0,494.0,505.0,505.0,505.0,505.0,503.0,503.0,503.0,503.0,488.0,488.0,353.0,353.0,353.0,311.0,311.0,311.0,281.0,281.0,281.0,281.0,299.0,299.0,299.0,299.0,354.0,354.0,354.0,354.0,393.0,393.0,7.0,52.0,238.0,505.0,488.0,393.0,507.6666666666667,504.3777777777778,414.26666666666665,505.0,482.0,281.0,509.0,505.0,393.0
0,508.0,508.0,509.0,509.0,509.0,509.0,506.0,506.0,506.0,506.0,505.0,505.0,505.0,505.0,505.0,505.0,505.0,505.0,505.0,506.0,502.0,502.0,494.0,494.0,494.0,494.0,505.0,505.0,505.0,505.0,503.0,503.0,503.0,503.0,488.0,488.0,488.0,488.0,488.0,500.0,311.0,311.0,281.0,281.0,281.0,281.0,299.0,299.0,299.0,299.0,354.0,354.0,354.0,354.0,393.0,393.0,393.0,393.0,393.0,326.0,7.0,52.0,238.0,506.0,500.0,326.0,507.5111111111111,500.55555555555554,402.8222222222222,505.0,488.0,281.0,509.0,505.0,393.0
0,509.0,509.0,506.0,506.0,506.0,506.0,505.0,505.0,505.0,505.0,505.0,505.0,505.0,505.0,505.0,506.0,506.0,506.0,509.0,509.0,494.0,494.0,505.0,505.0,505.0,505.0,503.0,503.0,503.0,503.0,488.0,488.0,488.0,488.0,488.0,500.0,500.0,500.0,489.0,489.0,281.0,281.0,299.0,299.0,299.0,299.0,354.0,354.0,354.0,354.0,393.0,393.0,393.0,393.0,393.0,326.0,326.0,326.0,360.0,360.0,7.0,33.0,238.0,509.0,489.0,360.0,507.5111111111111,497.44444444444446,388.0444444444444,505.0,488.0,281.0,509.0,505.0,393.0
0,506.0,506.0,505.0,505.0,505.0,505.0,505.0,505.0,505.0,505.0,505.0,506.0,506.0,506.0,509.0,509.0,509.0,509.0,511.0,511.0,505.0,505.0,503.0,503.0,503.0,503.0,488.0,488.0,488.0,488.0,488.0,500.0,500.0,500.0,489.0,489.0,489.0,489.0,479.0,479.0,299.0,299.0,354.0,354.0,354.0,354.0,393.0,393.0,393.0,393.0,393.0,326.0,326.0,326.0,360.0,360.0,360.0,360.0,491.0,491.0,7.0,36.0,234.0,511.0,479.0,491.0,507.77777777777777,494.77777777777777,379.73333333333335,505.0,479.0,299.0,511.0,505.0,491.0
0,505.0,505.0,505.0,505.0,505.0,505.0,505.0,506.0,506.0,506.0,509.0,509.0,509.0,509.0,511.0,511.0,511.0,511.0,513.0,513.0,503.0,503.0,488.0,488.0,488.0,488.0,488.0,500.0,500.0,500.0,489.0,489.0,489.0,489.0,479.0,479.0,479.0,479.0,482.0,482.0,354.0,354.0,393.0,393.0,393.0,393.0,393.0,326.0,326.0,326.0,360.0,360.0,360.0,360.0,491.0,491.0,491.0,491.0,677.0,677.0,8.0,26.0,396.0,513.0,482.0,677.0,508.0444444444444,491.7111111111111,385.8666666666667,505.0,479.0,326.0,513.0,503.0,677.0
0,505.0,505.0,505.0,506.0,506.0,506.0,509.0,509.0,509.0,509.0,511.0,511.0,511.0,511.0,513.0,513.0,513.0,513.0,511.0,511.0,488.0,488.0,488.0,500.0,500.0,500.0,489.0,489.0,489.0,489.0,479.0,479.0,479.0,479.0,482.0,482.0,482.0,482.0,491.0,491.0,393.0,393.0,393.0,326.0,326.0,326.0,360.0,360.0,360.0,360.0,491.0,491.0,491.0,491.0,677.0,677.0,677.0,677.0,826.0,826.0,8.0,26.0,545.0,511.0,491.0,826.0,508.1111111111111,491.2888888888889,411.2,505.0,479.0,326.0,513.0,500.0,826.0
0,506.0,506.0,509.0,509.0,509.0,509.0,511.0,511.0,511.0,511.0,513.0,513.0,513.0,513.0,511.0,511.0,511.0,511.0,513.0,513.0,500.0,500.0,489.0,489.0,489.0,489.0,479.0,479.0,479.0,479.0,482.0,482.0,482.0,482.0,491.0,491.0,491.0,491.0,498.0,498.0,326.0,326.0,360.0,360.0,360.0,360.0,491.0,491.0,491.0,491.0,677.0,677.0,677.0,677.0,826.0,826.0,826.0,826.0,678.0,678.0,8.0,26.0,545.0,513.0,498.0,678.0,508.3777777777778,492.0444444444444,439.9111111111111,506.0,479.0,326.0,513.0,500.0,826.0
0,509.0,509.0,509.0,511.0,511.0,511.0,511.0,513.0,513.0,513.0,513.0,511.0,511.0,511.0,511.0,513.0,513.0,513.0,513.0,509.0,489.0,489.0,489.0,479.0,479.0,479.0,479.0,482.0,482.0,482.0,482.0,491.0,491.0,491.0,491.0,498.0,498.0,498.0,498.0,524.0,360.0,360.0,360.0,491.0,491.0,491.0,491.0,677.0,677.0,677.0,677.0,826.0,826.0,826.0,826.0,678.0,678.0,678.0,678.0,582.0,8.0,45.0,545.0,509.0,524.0,582.0,508.68888888888887,493.68888888888887,459.44444444444446,509.0,479.0,360.0,513.0,524.0,826.0
0,511.0,511.0,513.0,513.0,513.0,513.0,511.0,511.0,511.0,511.0,513.0,513.0,513.0,513.0,509.0,509.0,509.0,509.0,514.0,514.0,479.0,479.0,482.0,482.0,482.0,482.0,491.0,491.0,491.0,491.0,498.0,498.0,498.0,498.0,524.0,524.0,524.0,524.0,520.0,520.0,491.0,491.0,677.0,677.0,677.0,677.0,826.0,826.0,826.0,826.0,678.0,678.0,678.0,678.0,582.0,582.0,582.0,582.0,509.0,509.0,9.0,45.0,545.0,514.0,520.0,509.0,509.02222222222224,496.5777777777778,486.0444444444444,509.0,479.0,491.0,514.0,524.0,826.0
0,513.0,513.0,511.0,511.0,511.0,511.0,513.0,513.0,513.0,513.0,509.0,509.0,509.0,509.0,514.0,514.0,514.0,514.0,508.0,508.0,482.0,482.0,491.0,491.0,491.0,491.0,498.0,498.0,498.0,498.0,524.0,524.0,524.0,524.0,520.0,520.0,520.0,520.0,527.0,527.0,677.0,677.0,826.0,826.0,826.0,826.0,678.0,678.0,678.0,678.0,582.0,582.0,582.0,582.0,509.0,509.0,509.0,509.0,519.0,519.0,9.0,48.0,527.0,508.0,527.0,519.0,509.26666666666665,498.9555555555556,506.35555555555555,508.0,482.0,509.0,514.0,527.0,826.0
0,511.0,511.0,513.0,513.0,513.0,513.0,509.0,509.0,509.0,509.0,514.0,514.0,514.0,514.0,508.0,508.0,508.0,508.0,515.0,515.0,491.0,491.0,498.0,498.0,498.0,498.0,524.0,524.0,524.0,524.0,520.0,520.0,520.0,520.0,527.0,527.0,527.0,527.0,524.0,524.0,826.0,826.0,678.0,678.0,678.0,678.0,582.0,582.0,582.0,582.0,509.0,509.0,509.0,509.0,519.0,519.0,519.0,519.0,500.0,500.0,10.0,48.0,500.0,515.0,524.0,500.0,509.77777777777777,500.8222222222222,523.8444444444444,508.0,491.0,500.0,515.0,527.0,826.0
0,513.0,513.0,509.0,509.0,509.0,509.0,514.0,514.0,514.0,514.0,508.0,508.0,508.0,508.0,515.0,515.0,515.0,515.0,506.0,506.0,498.0,498.0,524.0,524.0,524.0,524.0,520.0,520.0,520.0,520.0,527.0,527.0,527.0,527.0,524.0,524.0,524.0,524.0,535.0,535.0,678.0,678.0,582.0,582.0,582.0,582.0,509.0,509.0,509.0,509.0,519.0,519.0,519.0,519.0,500.0,500.0,500.0,500.0,484.0,484.0,10.0,56.0,500.0,506.0,535.0,484.0,510.26666666666665,503.5111111111111,535.2444444444444,506.0,498.0,484.0,515.0,535.0,678.0
0,509.0,509.0,514.0,514.0,514.0,514.0,508.0,508.0,508.0,508.0,515.0,515.0,515.0,515.0,506.0,506.0,506.0,506.0,500.0,500.0,524.0,524.0,520.0,520.0,520.0,520.0,527.0,527.0,527.0,527.0,524.0,524.0,524.0,524.0,535.0,535.0,535.0,535.0,568.0,568.0,582.0,582.0,509.0,509.0,509.0,509.0,519.0,519.0,519.0,519.0,500.0,500.0,500.0,500.0,484.0,484.0,484.0,484.0,490.0,490.0,15.0,89.0,500.0,500.0,568.0,490.0,510.0888888888889,509.15555555555557,543.6,500.0,520.0,484.0,515.0,568.0,582.0
0,514.0,514.0,508.0,508.0,508.0,508.0,515.0,515.0,515.0,515.0,506.0,506.0,506.0,506.0,500.0,500.0,500.0,500.0,511.0,511.0,520.0,520.0,527.0,527.0,527.0,527.0,524.0,524.0,524.0,524.0,535.0,535.0,535.0,535.0,568.0,568.0,568.0,568.0,509.0,509.0,509.0,509.0,519.0,519.0,519.0,519.0,500.0,500.0,500.0,500.0,484.0,484.0,484.0,484.0,490.0,490.0,490.0,490.0,510.0,510.0,15.0,89.0,466.0,511.0,509.0,510.0,509.97777777777776,512.8222222222222,558.3111111111111,500.0,509.0,484.0,515.0,568.0,519.0
0,508.0,508.0,515.0,515.0,515.0,515.0,506.0,506.0,506.0,506.0,500.0,500.0,500.0,500.0,511.0,511.0,511.0,511.0,513.0,513.0,527.0,527.0,524.0,524.0,524.0,524.0,535.0,535.0,535.0,535.0,568.0,568.0,568.0,568.0,509.0,509.0,509.0,509.0,511.0,511.0,519.0,519.0,500.0,500.0,500.0,500.0,484.0,484.0,484.0,484.0,490.0,490.0,490.0,490.0,510.0,510.0,510.0,510.0,534.0,534.0,15.0,89.0,342.0,513.0,511.0,534.0,510.2,514.9111111111112,569.8,500.0,509.0,484.0,515.0,568.0,534.0
0,515.0,515.0,515.0,506.0,506.0,506.0,506.0,500.0,500.0,500.0,500.0,511.0,511.0,511.0,511.0,513.0,513.0,513.0,513.0,513.0,524.0,524.0,524.0,535.0,535.0,535.0,535.0,568.0,568.0,568.0,568.0,509.0,509.0,509.0,509.0,511.0,511.0,511.0,511.0,509.0,500.0,500.0,500.0,484.0,484.0,484.0,484.0,490.0,490.0,490.0,490.0,510.0,510.0,510.0,510.0,534.0,534.0,534.0,534.0,540.0,15.0,86.0,342.0,513.0,509.0,540.0,510.3333333333333,517.0,572.8,500.0,509.0,484.0,515.0,568.0,540.0
0,506.0,506.0,500.0,500.0,500.0,500.0,511.0,511.0,511.0,511.0,513.0,513.0,513.0,513.0,513.0,513.0,513.0,513.0,510.0,510.0,535.0,535.0,568.0,568.0,568.0,568.0,509.0,509.0,509.0,509.0,511.0,511.0,511.0,511.0,509.0,509.0,509.0,509.0,506.0,506.0,484.0,484.0,490.0,490.0,490.0,490.0,510.0,510.0,510.0,510.0,534.0,534.0,534.0,534.0,540.0,540.0,540.0,540.0,547.0,547.0,15.0,77.0,342.0,510.0,506.0,547.0,510.24444444444447,519.6666666666666,554.5777777777778,500.0,506.0,484.0,513.0,568.0,547.0
0,500.0,511.0,511.0,511.0,511.0,513.0,513.0,513.0,513.0,513.0,513.0,513.0,513.0,510.0,510.0,510.0,510.0,510.0,567.0,567.0,568.0,509.0,509.0,509.0,509.0,511.0,511.0,511.0,511.0,509.0,509.0,509.0,509.0,506.0,506.0,506.0,506.0,506.0,516.0,516.0,490.0,510.0,510.0,510.0,510.0,534.0,534.0,534.0,534.0,540.0,540.0,540.0,540.0,547.0,547.0,547.0,547.0,547.0,560.0,560.0,67.0,70.0,194.0,567.0,516.0,560.0,512.5777777777778,521.4666666666667,530.7333333333333,500.0,506.0,490.0,567.0,568.0,560.0
0,511.0,513.0,513.0,513.0,513.0,513.0,513.0,513.0,513.0,510.0,510.0,510.0,510.0,510.0,567.0,567.0,567.0,567.0,494.0,494.0,509.0,511.0,511.0,511.0,511.0,509.0,509.0,509.0,509.0,506.0,506.0,506.0,506.0,506.0,516.0,516.0,516.0,516.0,513.0,513.0,510.0,534.0,534.0,534.0,534.0,540.0,540.0,540.0,540.0,547.0,547.0,547.0,547.0,547.0,560.0,560.0,560.0,560.0,547.0,547.0,73.0,62.0,98.0,494.0,513.0,547.0,514.3111111111111,521.7777777777778,523.9333333333333,494.0,506.0,510.0,567.0,516.0,560.0
0,513.0,513.0,513.0,513.0,513.0,510.0,510.0,510.0,510.0,510.0,567.0,567.0,567.0,567.0,494.0,494.0,494.0,494.0,494.0,504.0,511.0,509.0,509.0,509.0,509.0,506.0,506.0,506.0,506.0,506.0,516.0,516.0,516.0,516.0,513.0,513.0,513.0,513.0,513.0,510.0,534.0,540.0,540.0,540.0,540.0,547.0,547.0,547.0,547.0,547.0,560.0,560.0,560.0,560.0,547.0,547.0,547.0,547.0,547.0,539.0,73.0,62.0,76.0,504.0,510.0,539.0,512.9777777777778,520.9111111111112,523.8888888888889,494.0,506.0,534.0,567.0,516.0,560.0
0,513.0,510.0,510.0,510.0,510.0,510.0,567.0,567.0,567.0,567.0,494.0,494.0,494.0,494.0,494.0,504.0,504.0,504.0,504.0,504.0,509.0,506.0,506.0,506.0,506.0,506.0,516.0,516.0,516.0,516.0,513.0,513.0,513.0,513.0,513.0,510.0,510.0,510.0,502.0,502.0,540.0,547.0,547.0,547.0,547.0,547.0,560.0,560.0,560.0,560.0,547.0,547.0,547.0,547.0,547.0,539.0,539.0,539.0,505.0,505.0,73.0,66.0,76.0,504.0,502.0,505.0,512.3555555555556,519.3555555555556,524.6,494.0,502.0,505.0,567.0,516.0,560.0
0,510.0,510.0,567.0,567.0,567.0,567.0,494.0,494.0,494.0,494.0,494.0,504.0,504.0,504.0,504.0,504.0,504.0,504.0,503.0,503.0,506.0,506.0,516.0,516.0,516.0,516.0,513.0,513.0,513.0,513.0,513.0,510.0,510.0,510.0,502.0,502.0,502.0,502.0,496.0,496.0,547.0,547.0,560.0,560.0,560.0,560.0,547.0,547.0,547.0,547.0,547.0,539.0,539.0,539.0,505.0,505.0,505.0,505.0,486.0,486.0,73.0,72.0,76.0,503.0,496.0,486.0,511.64444444444445,517.0,523.3555555555556,494.0,496.0,486.0,567.0,516.0,560.0
0,567.0,567.0,494.0,494.0,494.0,494.0,494.0,504.0,504.0,504.0,504.0,504.0,504.0,504.0,503.0,503.0,503.0,503.0,502.0,502.0,516.0,516.0,513.0,513.0,513.0,513.0,513.0,510.0,510.0,510.0,502.0,502.0,502.0,502.0,496.0,496.0,496.0,496.0,499.0,499.0,560.0,560.0,547.0,547.0,547.0,547.0,547.0,539.0,539.0,539.0,505.0,505.0,505.0,505.0,486.0,486.0,486.0,486.0,479.0,479.0,73.0,72.0,81.0,502.0,499.0,479.0,510.93333333333334,514.1555555555556,522.5111111111111,494.0,496.0,479.0,567.0,516.0,560.0
0,494.0,494.0,504.0,504.0,504.0,504.0,504.0,504.0,504.0,503.0,503.0,503.0,503.0,502.0,502.0,502.0,502.0,502.0,504.0,504.0,513.0,513.0,510.0,510.0,510.0,502.0,502.0,502.0,502.0,496.0,496.0,496.0,496.0,499.0,499.0,499.0,499.0,499.0,489.0,489.0,547.0,547.0,539.0,539.0,539.0,505.0,505.0,505.0,505.0,486.0,486.0,486.0,486.0,479.0,479.0,479.0,479.0,479.0,459.0,459.0,73.0,79.0,101.0,504.0,489.0,459.0,510.97777777777776,507.5111111111111,520.6666666666666,494.0,489.0,459.0,504.0,513.0,547.0
0,504.0,504.0,504.0,504.0,504.0,503.0,503.0,503.0,503.0,502.0,502.0,502.0,502.0,502.0,504.0,504.0,504.0,504.0,508.0,508.0,510.0,502.0,502.0,502.0,502.0,496.0,496.0,496.0,496.0,499.0,499.0,499.0,499.0,499.0,489.0,489.0,489.0,489.0,474.0,474.0,539.0,505.0,505.0,505.0,505.0,486.0,486.0,486.0,486.0,479.0,479.0,479.0,479.0,479.0,459.0,459.0,459.0,459.0,467.0,467.0,73.0,42.0,101.0,508.0,474.0,467.0,510.77777777777777,503.75555555555553,516.9333333333333,502.0,474.0,459.0,508.0,510.0,539.0
0,504.0,503.0,503.0,503.0,503.0,502.0,502.0,502.0,502.0,502.0,504.0,504.0,504.0,504.0,508.0,508.0,508.0,508.0,514.0,514.0,502.0,496.0,496.0,496.0,496.0,499.0,499.0,499.0,499.0,499.0,489.0,489.0,489.0,489.0,474.0,474.0,474.0,474.0,484.0,484.0,505.0,486.0,486.0,486.0,486.0,479.0,479.0,479.0,479.0,479.0,459.0,459.0,459.0,459.0,467.0,467.0,467.0,467.0,472.0,472.0,73.0,42.0,101.0,514.0,484.0,472.0,510.64444444444445,500.9555555555556,511.73333333333335,502.0,474.0,459.0,514.0,502.0,505.0
0,503.0,503.0,502.0,502.0,502.0,502.0,502.0,504.0,504.0,504.0,504.0,508.0,508.0,508.0,508.0,514.0,514.0,514.0,513.0,513.0,496.0,496.0,499.0,499.0,499.0,499.0,499.0,489.0,489.0,489.0,489.0,474.0,474.0,474.0,474.0,484.0,484.0,484.0,496.0,496.0,486.0,486.0,479.0,479.0,479.0,479.0,479.0,459.0,459.0,459.0,459.0,467.0,467.0,467.0,467.0,472.0,472.0,472.0,474.0,474.0,73.0,42.0,101.0,513.0,496.0,474.0,510.6666666666667,499.77777777777777,507.4222222222222,502.0,474.0,459.0,514.0,499.0,486.0
0,502.0,502.0,502.0,504.0,504.0,504.0,504.0,508.0,508.0,508.0,508.0,514.0,514.0,514.0,513.0,513.0,513.0,513.0,516.0,516.0,499.0,499.0,499.0,489.0,489.0,489.0,489.0,474.0,474.0,474.0,474.0,484.0,484.0,484.0,496.0,496.0,496.0,496.0,488.0,488.0,479.0,479.0,479.0,459.0,459.0,459.0,459.0,467.0,467.0,467.0,467.0,472.0,472.0,472.0,474.0,474.0,474.0,474.0,475.0,475.0,73.0,42.0,101.0,516.0,488.0,475.0,510.93333333333334,498.4,501.2888888888889,502.0,474.0,459.0,516.0,499.0,479.0
0,504.0,504.0,504.0,508.0,508.0,508.0,508.0,514.0,514.0,514.0,513.0,513.0,513.0,513.0,516.0,516.0,516.0,516.0,511.0,511.0,489.0,489.0,489.0,474.0,474.0,474.0,474.0,484.0,484.0,484.0,496.0,496.0,496.0,496.0,488.0,488.0,488.0,488.0,494.0,494.0,459.0,459.0,459.0,467.0,467.0,467.0,467.0,472.0,472.0,472.0,474.0,474.0,474.0,474.0,475.0,475.0,475.0,475.0,479.0,479.0,73.0,42.0,101.0,511.0,494.0,479.0,509.97777777777776,496.84444444444443,494.77777777777777,504.0,474.0,459.0,516.0,496.0,479.0
0,508.0,508.0,508.0,508.0,514.0,514.0,514.0,513.0,513.0,513.0,513.0,516.0,516.0,516.0,516.0,511.0,511.0,511.0,516.0,516.0,474.0,474.0,474.0,474.0,484.0,484.0,484.0,496.0,496.0,496.0,496.0,488.0,488.0,488.0,488.0,494.0,494.0,494.0,507.0,507.0,467.0,467.0,467.0,467.0,472.0,472.0,472.0,474.0,474.0,474.0,474.0,475.0,475.0,475.0,475.0,479.0,479.0,479.0,483.0,483.0,22.0,39.0,88.0,516.0,507.0,483.0,506.46666666666664,495.9555555555556,489.55555555555554,508.0,474.0,467.0,516.0,507.0,483.0
0,514.0,514.0,514.0,513.0,513.0,513.0,513.0,516.0,516.0,516.0,516.0,511.0,511.0,511.0,516.0,516.0,516.0,516.0,508.0,508.0,484.0,484.0,484.0,496.0,496.0,496.0,496.0,488.0,488.0,488.0,488.0,494.0,494.0,494.0,507.0,507.0,507.0,507.0,519.0,519.0,472.0,472.0,472.0,474.0,474.0,474.0,474.0,475.0,475.0,475.0,475.0,479.0,479.0,479.0,483.0,483.0,483.0,483.0,495.0,495.0,22.0,45.0,88.0,508.0,519.0,495.0,508.06666666666666,495.9555555555556,484.4,508.0,484.0,472.0,516.0,519.0,495.0
0,513.0,513.0,513.0,516.0,516.0,516.0,516.0,511.0,511.0,511.0,516.0,516.0,516.0,516.0,508.0,508.0,508.0,508.0,506.0,506.0,496.0,496.0,496.0,488.0,488.0,488.0,488.0,494.0,494.0,494.0,507.0,507.0,507.0,507.0,519.0,519.0,519.0,519.0,539.0,539.0,474.0,474.0,474.0,475.0,475.0,475.0,475.0,479.0,479.0,479.0,483.0,483.0,483.0,483.0,495.0,495.0,495.0,495.0,502.0,502.0,14.0,65.0,46.0,506.0,539.0,502.0,508.55555555555554,497.5777777777778,480.6222222222222,506.0,488.0,474.0,516.0,539.0,502.0
0,516.0,516.0,516.0,511.0,511.0,511.0,516.0,516.0,516.0,516.0,508.0,508.0,508.0,508.0,506.0,506.0,506.0,506.0,510.0,510.0,488.0,488.0,488.0,494.0,494.0,494.0,507.0,507.0,507.0,507.0,519.0,519.0,519.0,519.0,539.0,539.0,539.0,539.0,531.0,531.0,475.0,475.0,475.0,479.0,479.0,479.0,483.0,483.0,483.0,483.0,495.0,495.0,495.0,495.0,502.0,502.0,502.0,502.0,522.0,522.0,14.0,65.0,63.0,510.0,531.0,522.0,508.9111111111111,500.5111111111111,481.24444444444447,506.0,488.0,475.0,516.0,539.0,522.0
0,511.0,511.0,516.0,516.0,516.0,516.0,508.0,508.0,508.0,508.0,506.0,506.0,506.0,506.0,510.0,510.0,510.0,510.0,503.0,503.0,494.0,494.0,507.0,507.0,507.0,507.0,519.0,519.0,519.0,519.0,539.0,539.0,539.0,539.0,531.0,531.0,531.0,531.0,536.0,536.0,479.0,479.0,483.0,483.0,483.0,483.0,495.0,495.0,495.0,495.0,502.0,502.0,502.0,502.0,522.0,522.0,522.0,522.0,532.0,532.0,14.0,65.0,73.0,503.0,536.0,532.0,509.22222222222223,503.84444444444443,484.8888888888889,503.0,494.0,479.0,516.0,539.0,532.0
0,516.0,516.0,508.0,508.0,508.0,508.0,506.0,506.0,506.0,506.0,510.0,510.0,510.0,510.0,503.0,503.0,503.0,503.0,511.0,511.0,507.0,507.0,519.0,519.0,519.0,519.0,539.0,539.0,539.0,539.0,531.0,531.0,531.0,531.0,536.0,536.0,536.0,536.0,537.0,537.0,483.0,483.0,495.0,495.0,495.0,495.0,502.0,502.0,502.0,502.0,522.0,522.0,522.0,522.0,532.0,532.0,532.0,532.0,543.0,543.0,14.0,65.0,84.0,511.0,537.0,543.0,509.6666666666667,507.1777777777778,490.0888888888889,503.0,507.0,483.0,516.0,539.0,543.0
0,508.0,508.0,506.0,506.0,506.0,506.0,510.0,510.0,510.0,510.0,503.0,503.0,503.0,503.0,511.0,511.0,511.0,511.0,509.0,509.0,519.0,519.0,539.0,539.0,539.0,539.0,531.0,531.0,531.0,531.0,536.0,536.0,536.0,536.0,537.0,537.0,537.0,537.0,532.0,532.0,495.0,495.0,502.0,502.0,502.0,502.0,522.0,522.0,522.0,522.0,532.0,532.0,532.0,532.0,543.0,543.0,543.0,543.0,543.0,543.0,13.0,65.0,84.0,509.0,532.0,543.0,510.24444444444447,511.0,497.1111111111111,503.0,519.0,495.0,511.0,539.0,543.0
0,506.0,506.0,506.0,510.0,510.0,510.0,510.0,503.0,503.0,503.0,503.0,511.0,511.0,511.0,511.0,509.0,509.0,509.0,515.0,515.0,539.0,539.0,539.0,531.0,531.0,531.0,531.0,536.0,536.0,536.0,536.0,537.0,537.0,537.0,537.0,532.0,532.0,532.0,512.0,512.0,502.0,502.0,502.0,522.0,522.0,522.0,522.0,532.0,532.0,532.0,532.0,543.0,543.0,543.0,543.0,543.0,543.0,543.0,549.0,549.0,13.0,65.0,82.0,515.0,512.0,549.0,510.6666666666667,513.6444444444444,502.6222222222222,503.0,512.0,502.0,515.0,539.0,549.0
0,510.0,510.0,510.0,503.0,503.0,503.0,503.0,511.0,511.0,511.0,511.0,509.0,509.0,509.0,515.0,515.0,515.0,515.0,515.0,512.0,531.0,531.0,531.0,536.0,536.0,536.0,536.0,537.0,537.0,537.0,537.0,532.0,532.0,532.0,512.0,512.0,512.0,512.0,512.0,519.0,522.0,522.0,522.0,532.0,532.0,532.0,532.0,543.0,543.0,543.0,543.0,543.0,543.0,543.0,549.0,549.0,549.0,549.0,549.0,560.0,13.0,55.0,88.0,512.0,519.0,560.0,510.9555555555556,516.7333333333333,509.93333333333334,503.0,512.0,522.0,515.0,537.0,560.0
0,503.0,503.0,511.0,511.0,511.0,511.0,509.0,509.0,509.0,515.0,515.0,515.0,515.0,515.0,512.0,512.0,512.0,512.0,514.0,514.0,536.0,536.0,537.0,537.0,537.0,537.0,532.0,532.0,532.0,512.0,512.0,512.0,512.0,512.0,519.0,519.0,519.0,519.0,511.0,511.0,532.0,532.0,543.0,543.0,543.0,543.0,543.0,543.0,543.0,549.0,549.0,549.0,549.0,549.0,560.0,560.0,560.0,560.0,569.0,569.0,13.0,51.0,94.0,514.0,511.0,569.0,510.9111111111111,519.2,519.9333333333333,503.0,511.0,532.0,515.0,537.0,569.0
0,511.0,511.0,509.0,509.0,509.0,515.0,515.0,515.0,515.0,515.0,512.0,512.0,512.0,512.0,514.0,514.0,514.0,514.0,498.0,498.0,537.0,537.0,532.0,532.0,532.0,512.0,512.0,512.0,512.0,512.0,519.0,519.0,519.0,519.0,511.0,511.0,511.0,511.0,524.0,524.0,543.0,543.0,543.0,543.0,543.0,549.0,549.0,549.0,549.0,549.0,560.0,560.0,560.0,560.0,569.0,569.0,569.0,569.0,561.0,561.0,18.0,45.0,90.0,498.0,524.0,561.0,510.02222222222224,521.8222222222222,527.9333333333333,498.0,511.0,543.0,515.0,537.0,569.0
0,509.0,515.0,515.0,515.0,515.0,515.0,512.0,512.0,512.0,512.0,514.0,514.0,514.0,514.0,498.0,498.0,498.0,498.0,510.0,510.0,532.0,512.0,512.0,512.0,512.0,512.0,519.0,519.0,519.0,519.0,511.0,511.0,511.0,511.0,524.0,524.0,524.0,524.0,514.0,514.0,543.0,549.0,549.0,549.0,549.0,549.0,560.0,560.0,560.0,560.0,569.0,569.0,569.0,569.0,561.0,561.0,561.0,561.0,557.0,557.0,18.0,32.0,86.0,510.0,514.0,557.0,509.2888888888889,523.7555555555556,534.9555555555555,498.0,511.0,543.0,515.0,532.0,569.0
0,515.0,515.0,512.0,512.0,512.0,512.0,514.0,514.0,514.0,514.0,498.0,498.0,498.0,498.0,510.0,510.0,510.0,510.0,505.0,505.0,512.0,512.0,519.0,519.0,519.0,519.0,511.0,511.0,511.0,511.0,524.0,524.0,524.0,524.0,514.0,514.0,514.0,514.0,494.0,494.0,549.0,549.0,560.0,560.0,560.0,560.0,569.0,569.0,569.0,569.0,561.0,561.0,561.0,561.0,557.0,557.0,557.0,557.0,539.0,539.0,17.0,45.0,74.0,505.0,494.0,539.0,508.7111111111111,523.2222222222222,540.4666666666667,498.0,494.0,539.0,515.0,524.0,569.0
0,512.0,512.0,514.0,514.0,514.0,514.0,498.0,498.0,498.0,498.0,510.0,510.0,510.0,510.0,505.0,505.0,505.0,505.0,507.0,507.0,519.0,519.0,511.0,511.0,511.0,511.0,524.0,524.0,524.0,524.0,514.0,514.0,514.0,514.0,494.0,494.0,494.0,494.0,496.0,496.0,560.0,560.0,569.0,569.0,569.0,569.0,561.0,561.0,561.0,561.0,557.0,557.0,557.0,557.0,539.0,539.0,539.0,539.0,522.0,522.0,17.0,45.0,67.0,507.0,496.0,522.0,508.5777777777778,520.6444444444444,543.4666666666667,498.0,494.0,522.0,514.0,524.0,569.0
0,514.0,514.0,498.0,498.0,498.0,498.0,510.0,510.0,510.0,510.0,505.0,505.0,505.0,505.0,507.0,507.0,507.0,507.0,505.0,505.0,511.0,511.0,524.0,524.0,524.0,524.0,514.0,514.0,514.0,514.0,494.0,494.0,494.0,494.0,496.0,496.0,496.0,496.0,492.0,492.0,569.0,569.0,561.0,561.0,561.0,561.0,557.0,557.0,557.0,557.0,539.0,539.0,539.0,539.0,522.0,522.0,522.0,522.0,507.0,507.0,17.0,45.0,62.0,505.0,492.0,507.0,508.4888888888889,516.8222222222222,544.1333333333333,498.0,492.0,507.0,514.0,524.0,569.0
0,498.0,498.0,510.0,510.0,510.0,510.0,505.0,505.0,505.0,505.0,507.0,507.0,507.0,507.0,505.0,505.0,505.0,505.0,506.0,506.0,524.0,524.0,514.0,514.0,514.0,514.0,494.0,494.0,494.0,494.0,496.0,496.0,496.0,496.0,492.0,492.0,492.0,492.0,492.0,492.0,561.0,561.0,557.0,557.0,557.0,557.0,539.0,539.0,539.0,539.0,522.0,522.0,522.0,522.0,507.0,507.0,507.0,507.0,479.0,479.0,17.0,45.0,90.0,506.0,492.0,479.0,508.24444444444447,513.2444444444444,541.3333333333334,498.0,492.0,479.0,510.0,524.0,561.0
0,510.0,510.0,505.0,505.0,505.0,505.0,507.0,507.0,507.0,507.0,505.0,505.0,505.0,505.0,506.0,506.0,506.0,506.0,500.0,500.0,514.0,514.0,494.0,494.0,494.0,494.0,496.0,496.0,496.0,496.0,492.0,492.0,492.0,492.0,492.0,492.0,492.0,492.0,513.0,513.0,557.0,557.0,539.0,539.0,539.0,539.0,522.0,522.0,522.0,522.0,507.0,507.0,507.0,507.0,479.0,479.0,479.0,479.0,479.0,479.0,17.0,45.0,90.0,500.0,513.0,479.0,508.06666666666666,510.24444444444447,536.3777777777777,500.0,492.0,479.0,510.0,514.0,557.0
0,505.0,505.0,505.0,507.0,507.0,507.0,507.0,505.0,505.0,505.0,505.0,506.0,506.0,506.0,506.0,500.0,500.0,500.0,500.0,508.0,494.0,494.0,494.0,496.0,496.0,496.0,496.0,492.0,492.0,492.0,492.0,492.0,492.0,492.0,492.0,513.0,513.0,513.0,513.0,489.0,539.0,539.0,539.0,522.0,522.0,522.0,522.0,507.0,507.0,507.0,507.0,479.0,479.0,479.0,479.0,479.0,479.0,479.0,479.0,470.0,17.0,43.0,99.0,508.0,489.0,470.0,507.5111111111111,508.1111111111111,531.9111111111112,500.0,489.0,470.0,508.0,513.0,539.0
0,507.0,507.0,505.0,505.0,505.0,505.0,506.0,506.0,506.0,506.0,500.0,500.0,500.0,500.0,508.0,508.0,508.0,508.0,514.0,514.0,496.0,496.0,492.0,492.0,492.0,492.0,492.0,492.0,492.0,492.0,513.0,513.0,513.0,513.0,489.0,489.0,489.0,489.0,469.0,469.0,522.0,522.0,507.0,507.0,507.0,507.0,479.0,479.0,479.0,479.0,479.0,479.0,479.0,479.0,470.0,470.0,470.0,470.0,481.0,481.0,17.0,55.0,99.0,514.0,469.0,481.0,507.4,503.3333333333333,524.0222222222222,500.0,469.0,470.0,514.0,513.0,522.0
0,505.0,505.0,506.0,506.0,506.0,506.0,500.0,500.0,500.0,500.0,508.0,508.0,508.0,508.0,514.0,514.0,514.0,514.0,512.0,512.0,492.0,492.0,492.0,492.0,492.0,492.0,513.0,513.0,513.0,513.0,489.0,489.0,489.0,489.0,469.0,469.0,469.0,469.0,498.0,498.0,507.0,507.0,479.0,479.0,479.0,479.0,479.0,479.0,479.0,479.0,470.0,470.0,470.0,470.0,481.0,481.0,481.0,481.0,493.0,493.0,16.0,55.0,99.0,512.0,498.0,493.0,507.2888888888889,500.64444444444445,518.2666666666667,500.0,469.0,470.0,514.0,513.0,507.0
0,506.0,506.0,500.0,500.0,500.0,500.0,508.0,508.0,508.0,508.0,514.0,514.0,514.0,514.0,512.0,512.0,512.0,512.0,511.0,511.0,492.0,492.0,513.0,513.0,513.0,513.0,489.0,489.0,489.0,489.0,469.0,469.0,469.0,469.0,498.0,498.0,498.0,498.0,491.0,491.0,479.0,479.0,479.0,479.0,479.0,479.0,470.0,470.0,470.0,470.0,481.0,481.0,481.0,481.0,493.0,493.0,493.0,493.0,496.0,496.0,16.0,55.0,99.0,511.0,491.0,496.0,507.2,498.64444444444445,512.2444444444444,500.0,469.0,470.0,514.0,513.0,496.0
0,500.0,500.0,508.0,508.0,508.0,508.0,514.0,514.0,514.0,514.0,512.0,512.0,512.0,512.0,511.0,511.0,511.0,511.0,514.0,514.0,513.0,513.0,489.0,489.0,489.0,489.0,469.0,469.0,469.0,469.0,498.0,498.0,498.0,498.0,491.0,491.0,491.0,491.0,500.0,500.0,479.0,479.0,470.0,470.0,470.0,470.0,481.0,481.0,481.0,481.0,493.0,493.0,493.0,493.0,496.0,496.0,496.0,496.0,506.0,506.0,16.0,55.0,91.0,514.0,500.0,506.0,507.4222222222222,496.97777777777776,506.3777777777778,500.0,469.0,470.0,514.0,513.0,506.0
0,508.0,508.0,514.0,514.0,514.0,514.0,512.0,512.0,512.0,512.0,511.0,511.0,511.0,511.0,514.0,514.0,514.0,514.0,512.0,512.0,489.0,489.0,469.0,469.0,469.0,469.0,498.0,498.0,498.0,498.0,491.0,491.0,491.0,491.0,500.0,500.0,500.0,500.0,503.0,503.0,470.0,470.0,481.0,481.0,481.0,481.0,493.0,493.0,493.0,493.0,496.0,496.0,496.0,496.0,506.0,506.0,506.0,506.0,513.0,513.0,14.0,45.0,87.0,512.0,503.0,513.0,508.4888888888889,495.2,501.8888888888889,508.0,469.0,470.0,514.0,503.0,513.0
0,514.0,514.0,512.0,512.0,512.0,512.0,511.0,511.0,511.0,511.0,514.0,514.0,514.0,514.0,512.0,512.0,512.0,512.0,508.0,508.0,469.0,469.0,498.0,498.0,498.0,498.0,491.0,491.0,491.0,491.0,500.0,500.0,500.0,500.0,503.0,503.0,503.0,503.0,514.0,514.0,481.0,481.0,493.0,493.0,493.0,493.0,496.0,496.0,496.0,496.0,506.0,506.0,506.0,506.0,513.0,513.0,513.0,513.0,524.0,524.0,14.0,45.0,69.0,508.0,514.0,524.0,508.6,495.15555555555557,498.8666666666667,508.0,469.0,481.0,514.0,514.0,524.0
0,512.0,512.0,511.0,511.0,511.0,511.0,514.0,514.0,514.0,514.0,512.0,512.0,512.0,512.0,508.0,508.0,508.0,508.0,508.0,510.0,498.0,498.0,491.0,491.0,491.0,491.0,500.0,500.0,500.0,500.0,503.0,503.0,503.0,503.0,514.0,514.0,514.0,514.0,514.0,524.0,493.0,493.0,496.0,496.0,496.0,496.0,506.0,506.0,506.0,506.0,513.0,513.0,513.0,513.0,524.0,524.0,524.0,524.0,524.0,516.0,14.0,55.0,54.0,510.0,524.0,516.0,508.8666666666667,497.1111111111111,497.73333333333335,508.0,491.0,493.0,514.0,524.0,524.0
0,511.0,511.0,514.0,514.0,514.0,514.0,512.0,512.0,512.0,512.0,508.0,508.0,508.0,508.0,508.0,510.0,510.0,510.0,510.0,509.0,491.0,491.0,500.0,500.0,500.0,500.0,503.0,503.0,503.0,503.0,514.0,514.0,514.0,514.0,514.0,524.0,524.0,524.0,524.0,535.0,496.0,496.0,506.0,506.0,506.0,506.0,513.0,513.0,513.0,513.0,524.0,524.0,524.0,524.0,524.0,516.0,516.0,516.0,516.0,519.0,14.0,66.0,54.0,509.0,535.0,519.0,509.15555555555557,499.93333333333334,497.6,508.0,491.0,496.0,514.0,535.0,524.0
0,514.0,512.0,512.0,512.0,512.0,508.0,508.0,508.0,508.0,508.0,510.0,510.0,510.0,510.0,509.0,509.0,509.0,509.0,503.0,503.0,500.0,503.0,503.0,503.0,503.0,514.0,514.0,514.0,514.0,514.0,524.0,524.0,524.0,524.0,535.0,535.0,535.0,535.0,552.0,552.0,506.0,513.0,513.0,513.0,513.0,524.0,524.0,524.0,524.0,524.0,516.0,516.0,516.0,516.0,519.0,519.0,519.0,519.0,518.0,518.0,14.0,83.0,54.0,503.0,552.0,518.0,509.2888888888889,505.46666666666664,500.1333333333333,503.0,500.0,506.0,514.0,552.0,524.0
0,512.0,508.0,508.0,508.0,508.0,508.0,510.0,510.0,510.0,510.0,509.0,509.0,509.0,509.0,503.0,503.0,503.0,503.0,505.0,505.0,503.0,514.0,514.0,514.0,514.0,514.0,524.0,524.0,524.0,524.0,535.0,535.0,535.0,535.0,552.0,552.0,552.0,552.0,538.0,538.0,513.0,524.0,524.0,524.0,524.0,524.0,516.0,516.0,516.0,516.0,519.0,519.0,519.0,519.0,518.0,518.0,518.0,518.0,519.0,519.0,14.0,83.0,54.0,505.0,538.0,519.0,509.3777777777778,509.24444444444447,503.64444444444445,503.0,503.0,513.0,512.0,552.0,524.0
0,508.0,508.0,510.0,510.0,510.0,510.0,509.0,509.0,509.0,509.0,503.0,503.0,503.0,503.0,505.0,505.0,505.0,505.0,509.0,509.0,514.0,514.0,524.0,524.0,524.0,524.0,535.0,535.0,535.0,535.0,552.0,552.0,552.0,552.0,538.0,538.0,538.0,538.0,523.0,523.0,524.0,524.0,516.0,516.0,516.0,516.0,519.0,519.0,519.0,519.0,518.0,518.0,518.0,518.0,519.0,519.0,519.0,519.0,521.0,521.0,11.0,83.0,54.0,509.0,523.0,521.0,509.64444444444445,511.8666666666667,507.68888888888887,503.0,514.0,516.0,510.0,552.0,524.0
0,510.0,510.0,509.0,509.0,509.0,509.0,503.0,503.0,503.0,503.0,505.0,505.0,505.0,505.0,509.0,509.0,509.0,509.0,512.0,512.0,524.0,524.0,535.0,535.0,535.0,535.0,552.0,552.0,552.0,552.0,538.0,538.0,538.0,538.0,523.0,523.0,523.0,523.0,518.0,518.0,516.0,516.0,519.0,519.0,519.0,519.0,518.0,518.0,518.0,518.0,519.0,519.0,519.0,519.0,521.0,521.0,521.0,521.0,519.0,519.0,11.0,83.0,43.0,512.0,518.0,519.0,509.6,515.5555555555555,511.64444444444445,503.0,518.0,516.0,512.0,552.0,521.0
0,509.0,509.0,503.0,503.0,503.0,503.0,505.0,505.0,505.0,505.0,509.0,509.0,509.0,509.0,512.0,512.0,512.0,512.0,508.0,508.0,535.0,535.0,552.0,552.0,552.0,552.0,538.0,538.0,538.0,538.0,523.0,523.0,523.0,523.0,518.0,518.0,518.0,518.0,511.0,511.0,519.0,519.0,518.0,518.0,518.0,518.0,519.0,519.0,519.0,519.0,521.0,521.0,521.0,521.0,519.0,519.0,519.0,519.0,508.0,508.0,11.0,61.0,31.0,508.0,511.0,508.0,509.3333333333333,518.3111111111111,514.0,503.0,511.0,508.0,512.0,552.0,521.0
0,503.0,503.0,505.0,505.0,505.0,505.0,509.0,509.0,509.0,509.0,512.0,512.0,512.0,512.0,508.0,508.0,508.0,508.0,509.0,509.0,552.0,552.0,538.0,538.0,538.0,538.0,523.0,523.0,523.0,523.0,518.0,518.0,518.0,518.0,511.0,511.0,511.0,511.0,503.0,503.0,518.0,518.0,519.0,519.0,519.0,519.0,521.0,521.0,521.0,521.0,519.0,519.0,519.0,519.0,508.0,508.0,508.0,508.0,502.0,502.0,11.0,61.0,28.0,509.0,503.0,502.0,509.06666666666666,519.4222222222222,514.9333333333333,503.0,503.0,502.0,512.0,552.0,521.0
0,505.0,505.0,509.0,509.0,509.0,509.0,512.0,512.0,512.0,512.0,508.0,508.0,508.0,508.0,509.0,509.0,509.0,509.0,510.0,510.0,538.0,538.0,523.0,523.0,523.0,523.0,518.0,518.0,518.0,518.0,511.0,511.0,511.0,511.0,503.0,503.0,503.0,503.0,511.0,511.0,519.0,519.0,521.0,521.0,521.0,521.0,519.0,519.0,519.0,519.0,508.0,508.0,508.0,508.0,502.0,502.0,502.0,502.0,490.0,490.0,11.0,52.0,34.0,510.0,511.0,490.0,508.8,520.4444444444445,514.4888888888889,505.0,503.0,490.0,512.0,538.0,521.0
0,509.0,509.0,512.0,512.0,512.0,512.0,508.0,508.0,508.0,508.0,509.0,509.0,509.0,509.0,510.0,510.0,510.0,510.0,508.0,508.0,523.0,523.0,518.0,518.0,518.0,518.0,511.0,511.0,511.0,511.0,503.0,503.0,503.0,503.0,511.0,511.0,511.0,511.0,505.0,505.0,521.0,521.0,519.0,519.0,519.0,519.0,508.0,508.0,508.0,508.0,502.0,502.0,502.0,502.0,490.0,490.0,490.0,490.0,482.0,482.0,9.0,49.0,42.0,508.0,505.0,482.0,508.44444444444446,521.0222222222222,512.4,508.0,503.0,482.0,512.0,523.0,521.0
0,512.0,512.0,512.0,508.0,508.0,508.0,508.0,509.0,509.0,509.0,509.0,510.0,510.0,510.0,510.0,508.0,508.0,508.0,510.0,510.0,518.0,518.0,518.0,511.0,511.0,511.0,511.0,503.0,503.0,503.0,503.0,511.0,511.0,511.0,511.0,505.0,505.0,505.0,510.0,510.0,519.0,519.0,519.0,508.0,508.0,508.0,508.0,502.0,502.0,502.0,502.0,490.0,490.0,490.0,490.0,482.0,482.0,482.0,471.0,471.0,9.0,49.0,53.0,510.0,510.0,471.0,508.35555555555555,521.1333333333333,509.6,508.0,503.0,471.0,512.0,518.0,519.0
0,508.0,508.0,508.0,509.0,509.0,509.0,509.0,510.0,510.0,510.0,510.0,508.0,508.0,508.0,510.0,510.0,510.0,510.0,505.0,505.0,511.0,511.0,511.0,503.0,503.0,503.0,503.0,511.0,511.0,511.0,511.0,505.0,505.0,505.0,510.0,510.0,510.0,510.0,503.0,503.0,508.0,508.0,508.0,502.0,502.0,502.0,502.0,490.0,490.0,490.0,490.0,482.0,482.0,482.0,471.0,471.0,471.0,471.0,472.0,472.0,9.0,49.0,50.0,505.0,503.0,472.0,508.31111111111113,520.4666666666667,504.93333333333334,505.0,503.0,471.0,510.0,511.0,508.0
0,509.0,509.0,509.0,510.0,510.0,510.0,510.0,508.0,508.0,508.0,510.0,510.0,510.0,510.0,505.0,505.0,505.0,505.0,504.0,504.0,503.0,503.0,503.0,511.0,511.0,511.0,511.0,505.0,505.0,505.0,510.0,510.0,510.0,510.0,503.0,503.0,503.0,503.0,503.0,503.0,502.0,502.0,502.0,490.0,490.0,490.0,490.0,482.0,482.0,482.0,471.0,471.0,471.0,471.0,472.0,472.0,472.0,472.0,471.0,471.0,9.0,49.0,50.0,504.0,503.0,471.0,507.8222222222222,518.6,500.97777777777776,504.0,503.0,471.0,510.0,511.0,502.0
0,510.0,510.0,510.0,508.0,508.0,508.0,510.0,510.0,510.0,510.0,505.0,505.0,505.0,505.0,504.0,504.0,504.0,504.0,504.0,504.0,511.0,511.0,511.0,505.0,505.0,505.0,510.0,510.0,510.0,510.0,503.0,503.0,503.0,503.0,503.0,503.0,503.0,503.0,503.0,500.0,490.0,490.0,490.0,482.0,482.0,482.0,471.0,471.0,471.0,471.0,472.0,472.0,472.0,472.0,471.0,471.0,471.0,471.0,471.0,480.0,9.0,52.0,50.0,504.0,500.0,480.0,507.3777777777778,515.6888888888889,496.9111111111111,504.0,500.0,471.0,510.0,511.0,490.0
0,508.0,508.0,510.0,510.0,510.0,510.0,505.0,505.0,505.0,505.0,504.0,504.0,504.0,504.0,504.0,504.0,504.0,504.0,511.0,511.0,505.0,505.0,510.0,510.0,510.0,510.0,503.0,503.0,503.0,503.0,503.0,503.0,503.0,503.0,503.0,500.0,500.0,500.0,493.0,493.0,482.0,482.0,471.0,471.0,471.0,471.0,472.0,472.0,472.0,472.0,471.0,471.0,471.0,471.0,471.0,480.0,480.0,480.0,491.0,491.0,8.0,45.0,50.0,511.0,493.0,491.0,507.77777777777777,510.75555555555553,494.02222222222224,504.0,493.0,471.0,511.0,510.0,491.0
0,510.0,510.0,505.0,505.0,505.0,505.0,504.0,504.0,504.0,504.0,504.0,504.0,504.0,504.0,511.0,511.0,511.0,511.0,514.0,514.0,510.0,510.0,503.0,503.0,503.0,503.0,503.0,503.0,503.0,503.0,503.0,500.0,500.0,500.0,493.0,493.0,493.0,493.0,490.0,490.0,471.0,471.0,472.0,472.0,472.0,472.0,471.0,471.0,471.0,471.0,471.0,480.0,480.0,480.0,491.0,491.0,491.0,491.0,503.0,503.0,10.0,33.0,50.0,514.0,490.0,503.0,508.44444444444446,506.6222222222222,492.06666666666666,504.0,490.0,471.0,514.0,510.0,503.0
0,505.0,505.0,504.0,504.0,504.0,504.0,504.0,504.0,504.0,504.0,511.0,511.0,511.0,511.0,514.0,514.0,514.0,514.0,511.0,511.0,503.0,503.0,503.0,503.0,503.0,503.0,503.0,500.0,500.0,500.0,493.0,493.0,493.0,493.0,490.0,490.0,490.0,490.0,496.0,496.0,472.0,472.0,471.0,471.0,471.0,471.0,471.0,480.0,480.0,480.0,491.0,491.0,491.0,491.0,503.0,503.0,503.0,503.0,515.0,515.0,10.0,28.0,48.0,511.0,496.0,515.0,508.75555555555553,503.9555555555556,491.0,504.0,490.0,471.0,514.0,503.0,515.0
0,504.0,504.0,504.0,504.0,504.0,504.0,511.0,511.0,511.0,511.0,514.0,514.0,514.0,514.0,511.0,511.0,511.0,511.0,511.0,511.0,503.0,503.0,503.0,500.0,500.0,500.0,493.0,493.0,493.0,493.0,490.0,490.0,490.0,490.0,496.0,496.0,496.0,496.0,497.0,497.0,471.0,471.0,471.0,480.0,480.0,480.0,491.0,491.0,491.0,491.0,503.0,503.0,503.0,503.0,515.0,515.0,515.0,515.0,523.0,523.0,10.0,21.0,52.0,511.0,497.0,523.0,508.6666666666667,502.0444444444444,491.0,504.0,490.0,471.0,514.0,503.0,523.0
0,504.0,504.0,511.0,511.0,511.0,511.0,514.0,514.0,514.0,514.0,511.0,511.0,511.0,511.0,511.0,511.0,511.0,511.0,513.0,513.0,500.0,500.0,493.0,493.0,493.0,493.0,490.0,490.0,490.0,490.0,496.0,496.0,496.0,496.0,497.0,497.0,497.0,497.0,496.0,496.0,480.0,480.0,491.0,491.0,491.0,491.0,503.0,503.0,503.0,503.0,515.0,515.0,515.0,515.0,523.0,523.0,523.0,523.0,520.0,520.0,10.0,21.0,52.0,513.0,496.0,520.0,509.02222222222224,500.75555555555553,492.2,504.0,490.0,480.0,514.0,500.0,523.0
0,511.0,514.0,514.0,514.0,514.0,511.0,511.0,511.0,511.0,511.0,511.0,511.0,511.0,513.0,513.0,513.0,513.0,513.0,509.0,509.0,493.0,490.0,490.0,490.0,490.0,496.0,496.0,496.0,496.0,497.0,497.0,497.0,497.0,496.0,496.0,496.0,496.0,496.0,491.0,491.0,491.0,503.0,503.0,503.0,503.0,515.0,515.0,515.0,515.0,523.0,523.0,523.0,523.0,520.0,520.0,520.0,520.0,520.0,530.0,530.0,10.0,21.0,59.0,509.0,491.0,530.0,509.26666666666665,499.5777777777778,494.9111111111111,509.0,490.0,491.0,514.0,497.0,530.0
0,514.0,511.0,511.0,511.0,511.0,511.0,511.0,511.0,511.0,513.0,513.0,513.0,513.0,513.0,509.0,509.0,509.0,509.0,510.0,510.0,490.0,496.0,496.0,496.0,496.0,497.0,497.0,497.0,497.0,496.0,496.0,496.0,496.0,496.0,491.0,491.0,491.0,491.0,506.0,506.0,503.0,515.0,515.0,515.0,515.0,523.0,523.0,523.0,523.0,520.0,520.0,520.0,520.0,520.0,530.0,530.0,530.0,530.0,529.0,529.0,10.0,20.0,59.0,510.0,506.0,529.0,509.26666666666665,498.6,498.6,509.0,490.0,503.0,514.0,506.0,530.0
0,511.0,511.0,511.0,511.0,511.0,513.0,513.0,513.0,513.0,513.0,509.0,509.0,509.0,509.0,510.0,510.0,510.0,510.0,506.0,506.0,496.0,497.0,497.0,497.0,497.0,496.0,496.0,496.0,496.0,496.0,491.0,491.0,491.0,491.0,506.0,506.0,506.0,506.0,503.0,503.0,515.0,523.0,523.0,523.0,523.0,520.0,520.0,520.0,520.0,520.0,530.0,530.0,530.0,530.0,529.0,529.0,529.0,529.0,537.0,537.0,10.0,20.0,66.0,506.0,503.0,537.0,509.1777777777778,498.3333333333333,503.6222222222222,506.0,491.0,515.0,513.0,506.0,537.0
0,511.0,513.0,513.0,513.0,513.0,513.0,509.0,509.0,509.0,509.0,510.0,510.0,510.0,510.0,506.0,506.0,506.0,506.0,509.0,509.0,497.0,496.0,496.0,496.0,496.0,496.0,491.0,491.0,491.0,491.0,506.0,506.0,506.0,506.0,503.0,503.0,503.0,503.0,520.0,520.0,523.0,520.0,520.0,520.0,520.0,520.0,530.0,530.0,530.0,530.0,529.0,529.0,529.0,529.0,537.0,537.0,537.0,537.0,542.0,542.0,10.0,30.0,71.0,509.0,520.0,542.0,509.1777777777778,498.77777777777777,509.6666666666667,506.0,491.0,520.0,513.0,520.0,542.0
0,513.0,513.0,509.0,509.0,509.0,509.0,510.0,510.0,510.0,510.0,506.0,506.0,506.0,506.0,509.0,509.0,509.0,509.0,516.0,516.0,496.0,496.0,491.0,491.0,491.0,491.0,506.0,506.0,506.0,506.0,503.0,503.0,503.0,503.0,520.0,520.0,520.0,520.0,526.0,526.0,520.0,520.0,530.0,530.0,530.0,530.0,529.0,529.0,529.0,529.0,537.0,537.0,537.0,537.0,542.0,542.0,542.0,542.0,540.0,540.0,12.0,36.0,71.0,516.0,526.0,540.0,509.73333333333335,500.4222222222222,515.8888888888889,506.0,491.0,520.0,516.0,526.0,542.0
0,509.0,509.0,510.0,510.0,510.0,510.0,506.0,506.0,506.0,506.0,509.0,509.0,509.0,509.0,509.0,516.0,516.0,516.0,506.0,506.0,491.0,491.0,506.0,506.0,506.0,506.0,503.0,503.0,503.0,503.0,520.0,520.0,520.0,520.0,520.0,526.0,526.0,526.0,541.0,541.0,530.0,530.0,529.0,529.0,529.0,529.0,537.0,537.0,537.0,537.0,542.0,542.0,542.0,542.0,542.0,540.0,540.0,540.0,537.0,537.0,12.0,51.0,62.0,506.0,541.0,537.0,510.35555555555555,503.2,521.6888888888889,506.0,491.0,529.0,516.0,541.0,542.0
0,510.0,510.0,506.0,506.0,506.0,506.0,509.0,509.0,509.0,509.0,509.0,516.0,516.0,516.0,506.0,506.0,506.0,506.0,510.0,510.0,506.0,506.0,503.0,503.0,503.0,503.0,520.0,520.0,520.0,520.0,520.0,526.0,526.0,526.0,541.0,541.0,541.0,541.0,537.0,537.0,529.0,529.0,537.0,537.0,537.0,537.0,542.0,542.0,542.0,542.0,542.0,540.0,540.0,540.0,537.0,537.0,537.0,537.0,538.0,538.0,10.0,51.0,51.0,510.0,537.0,538.0,510.4,506.97777777777776,526.3111111111111,506.0,503.0,529.0,516.0,541.0,542.0
0,506.0,506.0,509.0,509.0,509.0,509.0,509.0,516.0,516.0,516.0,506.0,506.0,506.0,506.0,510.0,510.0,510.0,510.0,504.0,504.0,503.0,503.0,520.0,520.0,520.0,520.0,520.0,526.0,526.0,526.0,541.0,541.0,541.0,541.0,537.0,537.0,537.0,537.0,540.0,540.0,537.0,537.0,542.0,542.0,542.0,542.0,542.0,540.0,540.0,540.0,537.0,537.0,537.0,537.0,538.0,538.0,538.0,538.0,531.0,531.0,12.0,51.0,39.0,504.0,540.0,531.0,509.9111111111111,511.15555555555557,529.6444444444444,504.0,503.0,531.0,516.0,541.0,542.0
0,509.0,509.0,509.0,516.0,516.0,516.0,506.0,506.0,506.0,506.0,510.0,510.0,510.0,510.0,504.0,504.0,504.0,504.0,511.0,511.0,520.0,520.0,520.0,526.0,526.0,526.0,541.0,541.0,541.0,541.0,537.0,537.0,537.0,537.0,540.0,540.0,540.0,540.0,525.0,525.0,542.0,542.0,542.0,540.0,540.0,540.0,537.0,537.0,537.0,537.0,538.0,538.0,538.0,538.0,531.0,531.0,531.0,531.0,521.0,521.0,12.0,50.0,27.0,511.0,525.0,521.0,509.46666666666664,514.6666666666666,531.1555555555556,504.0,520.0,521.0,516.0,541.0,542.0
0,516.0,516.0,506.0,506.0,506.0,506.0,510.0,510.0,510.0,510.0,504.0,504.0,504.0,504.0,511.0,511.0,511.0,511.0,511.0,511.0,526.0,526.0,541.0,541.0,541.0,541.0,537.0,537.0,537.0,537.0,540.0,540.0,540.0,540.0,525.0,525.0,525.0,525.0,512.0,512.0,540.0,540.0,537.0,537.0,537.0,537.0,538.0,538.0,538.0,538.0,531.0,531.0,531.0,531.0,521.0,521.0,521.0,521.0,510.0,510.0,12.0,50.0,32.0,511.0,512.0,510.0,509.46666666666664,516.6222222222223,530.8444444444444,504.0,512.0,510.0,516.0,541.0,540.0
0,506.0,506.0,510.0,510.0,510.0,510.0,504.0,504.0,504.0,504.0,511.0,511.0,511.0,511.0,511.0,511.0,511.0,511.0,513.0,513.0,541.0,541.0,537.0,537.0,537.0,537.0,540.0,540.0,540.0,540.0,525.0,525.0,525.0,525.0,512.0,512.0,512.0,512.0,513.0,513.0,537.0,537.0,538.0,538.0,538.0,538.0,531.0,531.0,531.0,531.0,521.0,521.0,521.0,521.0,510.0,510.0,510.0,510.0,498.0,498.0,12.0,50.0,44.0,513.0,513.0,498.0,509.46666666666664,518.0444444444445,529.2888888888889,504.0,512.0,498.0,513.0,541.0,538.0
0,510.0,510.0,504.0,504.0,504.0,504.0,511.0,511.0,511.0,511.0,511.0,511.0,511.0,511.0,513.0,513.0,513.0,513.0,515.0,515.0,537.0,537.0,540.0,540.0,540.0,540.0,525.0,525.0,525.0,525.0,512.0,512.0,512.0,512.0,513.0,513.0,513.0,513.0,508.0,508.0,538.0,538.0,531.0,531.0,531.0,531.0,521.0,521.0,521.0,521.0,510.0,510.0,510.0,510.0,498.0,498.0,498.0,498.0,491.0,491.0,12.0,50.0,51.0,515.0,508.0,491.0,509.64444444444445,519.4444444444445,526.8,504.0,508.0,491.0,515.0,540.0,538.0
0,504.0,504.0,511.0,511.0,511.0,511.0,511.0,511.0,511.0,511.0,513.0,513.0,513.0,513.0,515.0,515.0,515.0,515.0,512.0,512.0,540.0,540.0,525.0,525.0,525.0,525.0,512.0,512.0,512.0,512.0,513.0,513.0,513.0,513.0,508.0,508.0,508.0,508.0,496.0,496.0,531.0,531.0,521.0,521.0,521.0,521.0,510.0,510.0,510.0,510.0,498.0,498.0,498.0,498.0,491.0,491.0,491.0,491.0,496.0,496.0,12.0,45.0,51.0,512.0,496.0,496.0,510.02222222222224,520.0888888888888,523.5777777777778,504.0,496.0,491.0,515.0,540.0,531.0
0,511.0,511.0,511.0,511.0,511.0,511.0,513.0,513.0,513.0,513.0,515.0,515.0,515.0,515.0,512.0,512.0,512.0,512.0,507.0,507.0,525.0,525.0,512.0,512.0,512.0,512.0,513.0,513.0,513.0,513.0,508.0,508.0,508.0,508.0,496.0,496.0,496.0,496.0,504.0,504.0,521.0,521.0,510.0,510.0,510.0,510.0,498.0,498.0,498.0,498.0,491.0,491.0,491.0,491.0,496.0,496.0,496.0,496.0,486.0,486.0,12.0,45.0,56.0,507.0,504.0,486.0,510.06666666666666,519.6222222222223,520.0222222222222,507.0,496.0,486.0,515.0,525.0,521.0
0,511.0,513.0,513.0,513.0,513.0,515.0,515.0,515.0,515.0,512.0,512.0,512.0,512.0,507.0,507.0,507.0,507.0,507.0,505.0,505.0,512.0,513.0,513.0,513.0,513.0,508.0,508.0,508.0,508.0,496.0,496.0,496.0,496.0,504.0,504.0,504.0,504.0,504.0,501.0,501.0,510.0,498.0,498.0,498.0,498.0,491.0,491.0,491.0,491.0,496.0,496.0,496.0,496.0,486.0,486.0,486.0,486.0,486.0,486.0,486.0,12.0,45.0,56.0,505.0,501.0,486.0,510.0444444444444,519.2666666666667,515.3777777777777,505.0,496.0,486.0,515.0,513.0,510.0
0,513.0,513.0,515.0,515.0,515.0,515.0,512.0,512.0,512.0,512.0,507.0,507.0,507.0,507.0,507.0,505.0,505.0,505.0,506.0,506.0,513.0,513.0,508.0,508.0,508.0,508.0,496.0,496.0,496.0,496.0,504.0,504.0,504.0,504.0,504.0,501.0,501.0,501.0,501.0,501.0,498.0,498.0,491.0,491.0,491.0,491.0,496.0,496.0,496.0,496.0,486.0,486.0,486.0,486.0,486.0,486.0,486.0,486.0,483.0,483.0,12.0,45.0,57.0,506.0,501.0,483.0,509.73333333333335,517.5777777777778,510.26666666666665,505.0,496.0,483.0,515.0,513.0,498.0
0,515.0,515.0,512.0,512.0,512.0,512.0,507.0,507.0,507.0,507.0,507.0,505.0,505.0,505.0,506.0,506.0,506.0,506.0,506.0,506.0,508.0,508.0,496.0,496.0,496.0,496.0,504.0,504.0,504.0,504.0,504.0,501.0,501.0,501.0,501.0,501.0,501.0,501.0,496.0,496.0,491.0,491.0,496.0,496.0,496.0,496.0,486.0,486.0,486.0,486.0,486.0,486.0,486.0,486.0,483.0,483.0,483.0,483.0,481.0,481.0,11.0,45.0,57.0,506.0,496.0,481.0,509.06666666666666,514.8,505.1777777777778,505.0,496.0,481.0,515.0,508.0,496.0
0,512.0,512.0,512.0,507.0,507.0,507.0,507.0,507.0,505.0,505.0,505.0,506.0,506.0,506.0,506.0,506.0,506.0,506.0,503.0,503.0,496.0,496.0,496.0,504.0,504.0,504.0,504.0,504.0,501.0,501.0,501.0,501.0,501.0,501.0,501.0,496.0,496.0,496.0,493.0,493.0,496.0,496.0,496.0,486.0,486.0,486.0,486.0,486.0,486.0,486.0,486.0,483.0,483.0,483.0,483.0,481.0,481.0,481.0,479.0,479.0,12.0,47.0,59.0,503.0,493.0,479.0,508.93333333333334,511.6666666666667,501.35555555555555,503.0,493.0,479.0,512.0,504.0,496.0
0,507.0,507.0,507.0,507.0,505.0,505.0,505.0,506.0,506.0,506.0,506.0,506.0,506.0,506.0,503.0,503.0,503.0,503.0,508.0,508.0,504.0,504.0,504.0,504.0,501.0,501.0,501.0,501.0,501.0,501.0,501.0,496.0,496.0,496.0,493.0,493.0,493.0,493.0,502.0,502.0,486.0,486.0,486.0,486.0,486.0,486.0,486.0,483.0,483.0,483.0,483.0,481.0,481.0,481.0,479.0,479.0,479.0,479.0,481.0,481.0,12.0,47.0,52.0,508.0,502.0,481.0,508.53333333333336,508.15555555555557,496.2,503.0,493.0,479.0,508.0,504.0,486.0
0,505.0,505.0,505.0,506.0,506.0,506.0,506.0,506.0,506.0,506.0,503.0,503.0,503.0,503.0,508.0,508.0,508.0,508.0,507.0,507.0,501.0,501.0,501.0,501.0,501.0,501.0,501.0,496.0,496.0,496.0,493.0,493.0,493.0,493.0,502.0,502.0,502.0,502.0,494.0,494.0,486.0,486.0,486.0,483.0,483.0,483.0,483.0,481.0,481.0,481.0,479.0,479.0,479.0,479.0,481.0,481.0,481.0,481.0,482.0,482.0,12.0,32.0,42.0,507.0,494.0,482.0,508.84444444444443,504.4222222222222,491.8,503.0,493.0,479.0,508.0,502.0,486.0
0,506.0,506.0,506.0,506.0,506.0,506.0,503.0,503.0,503.0,503.0,508.0,508.0,508.0,508.0,507.0,507.0,507.0,507.0,510.0,510.0,501.0,501.0,501.0,496.0,496.0,496.0,493.0,493.0,493.0,493.0,502.0,502.0,502.0,502.0,494.0,494.0,494.0,494.0,497.0,497.0,483.0,483.0,483.0,481.0,481.0,481.0,479.0,479.0,479.0,479.0,481.0,481.0,481.0,481.0,482.0,482.0,482.0,482.0,479.0,479.0,12.0,20.0,31.0,510.0,497.0,479.0,508.6222222222222,501.8,488.2,503.0,493.0,479.0,510.0,502.0,483.0
0,506.0,506.0,503.0,503.0,503.0,503.0,508.0,508.0,508.0,508.0,507.0,507.0,507.0,507.0,510.0,510.0,510.0,510.0,512.0,512.0,496.0,496.0,493.0,493.0,493.0,493.0,502.0,502.0,502.0,502.0,494.0,494.0,494.0,494.0,497.0,497.0,497.0,497.0,478.0,478.0,481.0,481.0,479.0,479.0,479.0,479.0,481.0,481.0,481.0,481.0,482.0,482.0,482.0,482.0,479.0,479.0,479.0,479.0,480.0,480.0,12.0,35.0,19.0,512.0,478.0,480.0,508.6222222222222,499.6222222222222,485.4888888888889,503.0,478.0,479.0,512.0,502.0,482.0
0,503.0,503.0,508.0,508.0,508.0,508.0,507.0,507.0,507.0,507.0,510.0,510.0,510.0,510.0,512.0,512.0,512.0,512.0,509.0,509.0,493.0,493.0,502.0,502.0,502.0,502.0,494.0,494.0,494.0,494.0,497.0,497.0,497.0,497.0,478.0,478.0,478.0,478.0,501.0,501.0,479.0,479.0,481.0,481.0,481.0,481.0,482.0,482.0,482.0,482.0,479.0,479.0,479.0,479.0,480.0,480.0,480.0,480.0,487.0,487.0,12.0,30.0,17.0,509.0,501.0,487.0,508.4,497.53333333333336,484.2,503.0,478.0,479.0,512.0,502.0,487.0
0,508.0,508.0,507.0,507.0,507.0,507.0,510.0,510.0,510.0,510.0,512.0,512.0,512.0,512.0,509.0,509.0,509.0,509.0,512.0,512.0,502.0,502.0,494.0,494.0,494.0,494.0,497.0,497.0,497.0,497.0,478.0,478.0,478.0,478.0,501.0,501.0,501.0,501.0,493.0,493.0,481.0,481.0,482.0,482.0,482.0,482.0,479.0,479.0,479.0,479.0,480.0,480.0,480.0,480.0,487.0,487.0,487.0,487.0,496.0,496.0,9.0,26.0,17.0,512.0,493.0,496.0,508.0,496.55555555555554,484.24444444444447,507.0,478.0,479.0,512.0,502.0,496.0
0,507.0,507.0,510.0,510.0,510.0,510.0,512.0,512.0,512.0,512.0,509.0,509.0,509.0,509.0,512.0,512.0,512.0,512.0,509.0,509.0,494.0,494.0,497.0,497.0,497.0,497.0,478.0,478.0,478.0,478.0,501.0,501.0,501.0,501.0,493.0,493.0,493.0,493.0,524.0,524.0,482.0,482.0,479.0,479.0,479.0,479.0,480.0,480.0,480.0,480.0,487.0,487.0,487.0,487.0,496.0,496.0,496.0,496.0,504.0,504.0,9.0,46.0,25.0,509.0,524.0,504.0,507.8666666666667,497.6666666666667,484.6,507.0,478.0,479.0,512.0,524.0,504.0
0,510.0,510.0,512.0,512.0,512.0,512.0,509.0,509.0,509.0,509.0,512.0,512.0,512.0,512.0,509.0,509.0,509.0,509.0,505.0,505.0,497.0,497.0,478.0,478.0,478.0,478.0,501.0,501.0,501.0,501.0,493.0,493.0,493.0,493.0,524.0,524.0,524.0,524.0,528.0,528.0,479.0,479.0,480.0,480.0,480.0,480.0,487.0,487.0,487.0,487.0,496.0,496.0,496.0,496.0,504.0,504.0,504.0,504.0,503.0,503.0,9.0,50.0,25.0,505.0,528.0,503.0,507.8666666666667,499.6222222222222,486.15555555555557,505.0,478.0,479.0,512.0,528.0,504.0
0,512.0,512.0,509.0,509.0,509.0,509.0,512.0,512.0,512.0,512.0,509.0,509.0,509.0,509.0,505.0,505.0,505.0,505.0,513.0,513.0,478.0,478.0,501.0,501.0,501.0,501.0,493.0,493.0,493.0,493.0,524.0,524.0,524.0,524.0,528.0,528.0,528.0,528.0,526.0,526.0,480.0,480.0,487.0,487.0,487.0,487.0,496.0,496.0,496.0,496.0,504.0,504.0,504.0,504.0,503.0,503.0,503.0,503.0,511.0,511.0,10.0,50.0,32.0,513.0,526.0,511.0,508.1777777777778,501.8666666666667,488.02222222222224,505.0,478.0,480.0,513.0,528.0,511.0
0,509.0,509.0,512.0,512.0,512.0,512.0,509.0,509.0,509.0,509.0,505.0,505.0,505.0,505.0,513.0,513.0,513.0,513.0,505.0,505.0,501.0,501.0,493.0,493.0,493.0,493.0,524.0,524.0,524.0,524.0,528.0,528.0,528.0,528.0,526.0,526.0,526.0,526.0,532.0,532.0,487.0,487.0,496.0,496.0,496.0,496.0,504.0,504.0,504.0,504.0,503.0,503.0,503.0,503.0,511.0,511.0,511.0,511.0,526.0,526.0,10.0,54.0,47.0,505.0,532.0,526.0,508.44444444444446,504.35555555555555,491.1777777777778,505.0,493.0,487.0,513.0,532.0,526.0
0,512.0,512.0,509.0,509.0,509.0,509.0,505.0,505.0,505.0,505.0,513.0,513.0,513.0,513.0,505.0,505.0,505.0,505.0,508.0,508.0,493.0,493.0,524.0,524.0,524.0,524.0,528.0,528.0,528.0,528.0,526.0,526.0,526.0,526.0,532.0,532.0,532.0,532.0,537.0,537.0,496.0,496.0,504.0,504.0,504.0,504.0,503.0,503.0,503.0,503.0,511.0,511.0,511.0,511.0,526.0,526.0,526.0,526.0,554.0,554.0,10.0,59.0,75.0,508.0,537.0,554.0,508.55555555555554,507.84444444444443,496.46666666666664,505.0,493.0,496.0,513.0,537.0,554.0
0,509.0,509.0,505.0,505.0,505.0,505.0,513.0,513.0,513.0,513.0,505.0,505.0,505.0,505.0,508.0,508.0,508.0,508.0,510.0,510.0,524.0,524.0,528.0,528.0,528.0,528.0,526.0,526.0,526.0,526.0,532.0,532.0,532.0,532.0,537.0,537.0,537.0,537.0,525.0,525.0,504.0,504.0,503.0,503.0,503.0,503.0,511.0,511.0,511.0,511.0,526.0,526.0,526.0,526.0,554.0,554.0,554.0,554.0,567.0,567.0,8.0,59.0,88.0,510.0,525.0,567.0,508.97777777777776,511.02222222222224,503.6666666666667,505.0,524.0,503.0,513.0,537.0,567.0
0,505.0,505.0,513.0,513.0,513.0,513.0,505.0,505.0,505.0,505.0,508.0,508.0,508.0,508.0,510.0,510.0,510.0,510.0,510.0,510.0,528.0,528.0,526.0,526.0,526.0,526.0,532.0,532.0,532.0,532.0,537.0,537.0,537.0,537.0,525.0,525.0,525.0,525.0,529.0,529.0,503.0,503.0,511.0,511.0,511.0,511.0,526.0,526.0,526.0,526.0,554.0,554.0,554.0,554.0,567.0,567.0,567.0,567.0,561.0,561.0,8.0,59.0,88.0,510.0,529.0,561.0,509.1777777777778,513.4222222222222,511.02222222222224,505.0,525.0,503.0,513.0,537.0,567.0
0,513.0,513.0,505.0,505.0,505.0,505.0,508.0,508.0,508.0,508.0,510.0,510.0,510.0,510.0,510.0,510.0,510.0,510.0,511.0,511.0,526.0,526.0,532.0,532.0,532.0,532.0,537.0,537.0,537.0,537.0,525.0,525.0,525.0,525.0,529.0,529.0,529.0,529.0,532.0,532.0,511.0,511.0,526.0,526.0,526.0,526.0,554.0,554.0,554.0,554.0,567.0,567.0,567.0,567.0,561.0,561.0,561.0,561.0,547.0,547.0,8.0,59.0,88.0,511.0,532.0,547.0,509.4222222222222,516.6,517.4888888888889,505.0,525.0,511.0,513.0,537.0,567.0
0,505.0,505.0,508.0,508.0,508.0,508.0,510.0,510.0,510.0,510.0,510.0,510.0,510.0,510.0,511.0,511.0,511.0,511.0,510.0,510.0,532.0,532.0,537.0,537.0,537.0,537.0,525.0,525.0,525.0,525.0,529.0,529.0,529.0,529.0,532.0,532.0,532.0,532.0,517.0,517.0,526.0,526.0,554.0,554.0,554.0,554.0,567.0,567.0,567.0,567.0,561.0,561.0,561.0,561.0,547.0,547.0,547.0,547.0,523.0,523.0,8.0,59.0,87.0,510.0,517.0,523.0,509.4222222222222,519.4666666666667,522.4444444444445,505.0,517.0,523.0,511.0,537.0,567.0
0,508.0,508.0,508.0,510.0,510.0,510.0,510.0,510.0,510.0,510.0,510.0,511.0,511.0,511.0,511.0,510.0,510.0,510.0,516.0,516.0,537.0,537.0,537.0,525.0,525.0,525.0,525.0,529.0,529.0,529.0,529.0,532.0,532.0,532.0,532.0,517.0,517.0,517.0,497.0,497.0,554.0,554.0,554.0,567.0,567.0,567.0,567.0,561.0,561.0,561.0,561.0,547.0,547.0,547.0,547.0,523.0,523.0,523.0,506.0,506.0,11.0,44.0,80.0,516.0,497.0,506.0,509.55555555555554,521.1777777777778,524.5555555555555,508.0,497.0,506.0,516.0,537.0,567.0
0,510.0,510.0,510.0,510.0,510.0,510.0,511.0,511.0,511.0,511.0,510.0,510.0,510.0,516.0,516.0,516.0,516.0,516.0,508.0,508.0,525.0,525.0,529.0,529.0,529.0,529.0,532.0,532.0,532.0,532.0,517.0,517.0,517.0,497.0,497.0,497.0,497.0,497.0,502.0,502.0,567.0,567.0,561.0,561.0,561.0,561.0,547.0,547.0,547.0,547.0,523.0,523.0,523.0,506.0,506.0,506.0,506.0,506.0,483.0,483.0,11.0,44.0,84.0,508.0,502.0,483.0,509.9111111111111,521.1333333333333,525.4444444444445,508.0,497.0,483.0,516.0,532.0,567.0
0,510.0,510.0,511.0,511.0,511.0,511.0,510.0,510.0,510.0,516.0,516.0,516.0,516.0,516.0,508.0,508.0,508.0,508.0,512.0,512.0,529.0,529.0,532.0,532.0,532.0,532.0,517.0,517.0,517.0,497.0,497.0,497.0,497.0,497.0,502.0,502.0,502.0,502.0,500.0,500.0,561.0,561.0,547.0,547.0,547.0,547.0,523.0,523.0,523.0,506.0,506.0,506.0,506.0,506.0,483.0,483.0,483.0,483.0,450.0,450.0,11.0,40.0,117.0,512.0,500.0,450.0,509.8,521.1555555555556,522.6444444444444,508.0,497.0,450.0,516.0,532.0,561.0
0,511.0,511.0,510.0,510.0,510.0,516.0,516.0,516.0,516.0,516.0,508.0,508.0,508.0,508.0,512.0,512.0,512.0,512.0,508.0,508.0,532.0,532.0,517.0,517.0,517.0,497.0,497.0,497.0,497.0,497.0,502.0,502.0,502.0,502.0,500.0,500.0,500.0,500.0,498.0,498.0,547.0,547.0,523.0,523.0,523.0,506.0,506.0,506.0,506.0,506.0,483.0,483.0,483.0,483.0,450.0,450.0,450.0,450.0,415.0,415.0,11.0,40.0,152.0,508.0,498.0,415.0,509.97777777777776,518.8444444444444,516.3111111111111,508.0,497.0,415.0,516.0,532.0,547.0
0,510.0,516.0,516.0,516.0,516.0,516.0,508.0,508.0,508.0,512.0,512.0,512.0,512.0,508.0,508.0,508.0,508.0,508.0,508.0,508.0,517.0,497.0,497.0,497.0,497.0,497.0,502.0,502.0,502.0,500.0,500.0,500.0,500.0,498.0,498.0,498.0,498.0,482.0,482.0,482.0,523.0,506.0,506.0,506.0,506.0,506.0,483.0,483.0,483.0,450.0,450.0,450.0,450.0,415.0,415.0,415.0,415.0,367.0,367.0,367.0,11.0,55.0,200.0,508.0,482.0,367.0,510.06666666666666,515.5111111111111,506.1777777777778,508.0,482.0,367.0,516.0,517.0,523.0
0,516.0,508.0,508.0,508.0,508.0,512.0,512.0,512.0,512.0,508.0,508.0,508.0,508.0,508.0,508.0,508.0,508.0,508.0,505.0,505.0,497.0,502.0,502.0,502.0,502.0,500.0,500.0,500.0,500.0,498.0,498.0,498.0,498.0,482.0,482.0,482.0,482.0,482.0,493.0,493.0,506.0,483.0,483.0,483.0,483.0,450.0,450.0,450.0,450.0,415.0,415.0,415.0,415.0,367.0,367.0,367.0,367.0,367.0,314.0,314.0,11.0,55.0,253.0,505.0,493.0,314.0,509.73333333333335,510.84444444444443,487.15555555555557,505.0,482.0,314.0,516.0,502.0,506.0
