,emg_max_0,emg_max_1,emg_max_2,emg_ampl_0,emg_ampl_1,emg_ampl_2,emg_min_0,emg_min_1,emg_min_2,emg_prev_0_0,emg_prev_0_1,emg_prev_0_2,emg_prev_0_3,emg_prev_0_4,emg_prev_0_5,emg_prev_0_6,emg_prev_0_7,emg_prev_0_8,emg_prev_0_9,emg_prev_0_10,emg_prev_0_11,emg_prev_0_12,emg_prev_0_13,emg_prev_0_14,emg_prev_0_15,emg_prev_0_16,emg_prev_0_17,emg_prev_0_18,emg_prev_0_19,emg_prev_1_0,emg_prev_1_1,emg_prev_1_2,emg_prev_1_3,emg_prev_1_4,emg_prev_1_5,emg_prev_1_6,emg_prev_1_7,emg_prev_1_8,emg_prev_1_9,emg_prev_1_10,emg_prev_1_11,emg_prev_1_12,emg_prev_1_13,emg_prev_1_14,emg_prev_1_15,emg_prev_1_16,emg_prev_1_17,emg_prev_1_18,emg_prev_1_19,emg_prev_2_0,emg_prev_2_1,emg_prev_2_2,emg_prev_2_3,emg_prev_2_4,emg_prev_2_5,emg_prev_2_6,emg_prev_2_7,emg_prev_2_8,emg_prev_2_9,emg_prev_2_10,emg_prev_2_11,emg_prev_2_12,emg_prev_2_13,emg_prev_2_14,emg_prev_2_15,emg_prev_2_16,emg_prev_2_17,emg_prev_2_18,emg_prev_2_19,emg_med_0,emg_med_1,emg_med_2,emg_0,emg_1,emg_2
0,0.0,0.0,0.0,0.0,0.0,0.0,0.0,0.0,0.0,0.0,0.0,0.0,0.0,0.0,0.0,0.0,0.0,0.0,0.0,0.0,0.0,0.0,0.0,0.0,0.0,0.0,0.0,0.0,0.0,0.0,0.0,0.0,0.0,0.0,0.0,0.0,0.0,0.0,0.0,0.0,0.0,0.0,0.0,0.0,0.0,0.0,0.0,0.0,0.0,0.0,0.0,0.0,0.0,0.0,0.0,0.0,0.0,0.0,0.0,0.0,0.0,0.0,0.0,0.0,0.0,0.0,0.0,0.0,0.0,0.0,0.0,0.0,0.0,0.0,0.0
0,511.0,480.0,653.0,29.0,124.0,169.0,498.0,434.0,511.0,503.0,507.0,507.0,507.0,507.0,507.0,498.0,498.0,498.0,498.0,498.0,509.0,509.0,509.0,509.0,511.0,511.0,511.0,511.0,511.0,480.0,442.0,442.0,442.0,442.0,442.0,457.0,457.0,457.0,457.0,457.0,445.0,445.0,445.0,445.0,434.0,434.0,434.0,434.0,434.0,511.0,539.0,539.0,539.0,539.0,539.0,584.0,584.0,584.0,584.0,584.0,637.0,637.0,637.0,637.0,653.0,653.0,653.0,653.0,653.0,504.2,490.6,540.7333333333333,511.0,434.0,653.0
0,511.0,457.0,653.0,15.0,124.0,169.0,498.0,434.0,539.0,507.0,507.0,498.0,498.0,498.0,498.0,498.0,509.0,509.0,509.0,509.0,511.0,511.0,511.0,511.0,511.0,501.0,501.0,501.0,503.0,442.0,442.0,457.0,457.0,457.0,457.0,457.0,445.0,445.0,445.0,445.0,434.0,434.0,434.0,434.0,434.0,451.0,451.0,451.0,465.0,539.0,539.0,584.0,584.0,584.0,584.0,584.0,637.0,637.0,637.0,637.0,653.0,653.0,653.0,653.0,653.0,599.0,599.0,599.0,537.0,503.35555555555555,482.6222222222222,551.6,501.0,451.0,599.0
0,511.0,465.0,653.0,15.0,124.0,169.0,498.0,434.0,537.0,498.0,498.0,498.0,509.0,509.0,509.0,509.0,509.0,511.0,511.0,511.0,511.0,511.0,501.0,501.0,501.0,503.0,503.0,503.0,503.0,457.0,457.0,457.0,445.0,445.0,445.0,445.0,445.0,434.0,434.0,434.0,434.0,434.0,451.0,451.0,451.0,465.0,465.0,465.0,465.0,584.0,584.0,584.0,637.0,637.0,637.0,637.0,637.0,653.0,653.0,653.0,653.0,653.0,599.0,599.0,599.0,537.0,537.0,537.0,537.0,503.4,476.0444444444444,555.6444444444444,503.0,465.0,537.0
0,511.0,499.0,653.0,14.0,124.0,169.0,497.0,434.0,506.0,509.0,509.0,509.0,509.0,511.0,511.0,511.0,511.0,511.0,501.0,501.0,503.0,503.0,503.0,503.0,497.0,497.0,497.0,497.0,511.0,445.0,445.0,445.0,445.0,434.0,434.0,434.0,434.0,434.0,451.0,451.0,465.0,465.0,465.0,465.0,499.0,499.0,499.0,499.0,490.0,637.0,637.0,637.0,637.0,653.0,653.0,653.0,653.0,653.0,599.0,599.0,537.0,537.0,537.0,537.0,506.0,506.0,506.0,506.0,480.0,503.46666666666664,471.46666666666664,557.0,497.0,499.0,506.0
0,511.0,522.0,653.0,14.0,88.0,173.0,497.0,434.0,480.0,511.0,511.0,511.0,511.0,511.0,501.0,501.0,501.0,503.0,503.0,503.0,503.0,497.0,497.0,497.0,497.0,511.0,511.0,511.0,500.0,434.0,434.0,434.0,434.0,434.0,451.0,451.0,451.0,465.0,465.0,465.0,465.0,499.0,499.0,499.0,499.0,490.0,490.0,490.0,522.0,653.0,653.0,653.0,653.0,653.0,599.0,599.0,599.0,537.0,537.0,537.0,537.0,506.0,506.0,506.0,506.0,480.0,480.0,480.0,495.0,504.46666666666664,466.1333333333333,556.9777777777778,500.0,522.0,495.0
0,511.0,522.0,599.0,14.0,88.0,173.0,497.0,451.0,480.0,501.0,501.0,501.0,503.0,503.0,503.0,503.0,497.0,497.0,497.0,497.0,511.0,511.0,511.0,500.0,500.0,500.0,500.0,500.0,511.0,451.0,451.0,451.0,465.0,465.0,465.0,465.0,499.0,499.0,499.0,499.0,490.0,490.0,490.0,522.0,522.0,522.0,522.0,522.0,516.0,599.0,599.0,599.0,537.0,537.0,537.0,537.0,506.0,506.0,506.0,506.0,480.0,480.0,480.0,495.0,495.0,495.0,495.0,495.0,502.0,504.15555555555557,468.77777777777777,555.6888888888889,511.0,516.0,502.0
0,511.0,522.0,537.0,14.0,88.0,173.0,497.0,465.0,480.0,503.0,503.0,497.0,497.0,497.0,497.0,511.0,511.0,511.0,500.0,500.0,500.0,500.0,500.0,511.0,511.0,511.0,511.0,511.0,510.0,465.0,465.0,499.0,499.0,499.0,499.0,490.0,490.0,490.0,522.0,522.0,522.0,522.0,522.0,516.0,516.0,516.0,516.0,516.0,518.0,537.0,537.0,506.0,506.0,506.0,506.0,480.0,480.0,480.0,495.0,495.0,495.0,495.0,495.0,502.0,502.0,502.0,502.0,502.0,500.0,505.02222222222224,472.8222222222222,554.6444444444444,510.0,518.0,500.0
0,521.0,530.0,506.0,24.0,96.0,173.0,497.0,490.0,480.0,497.0,511.0,511.0,511.0,500.0,500.0,500.0,500.0,500.0,511.0,511.0,511.0,511.0,511.0,510.0,510.0,510.0,510.0,510.0,521.0,499.0,490.0,490.0,490.0,522.0,522.0,522.0,522.0,522.0,516.0,516.0,516.0,516.0,516.0,518.0,518.0,518.0,518.0,518.0,530.0,506.0,480.0,480.0,480.0,495.0,495.0,495.0,495.0,495.0,502.0,502.0,502.0,502.0,502.0,500.0,500.0,500.0,500.0,500.0,490.0,505.6,481.53333333333336,550.0888888888888,521.0,530.0,490.0
0,521.0,563.0,502.0,24.0,129.0,173.0,500.0,516.0,490.0,500.0,500.0,500.0,500.0,500.0,511.0,511.0,511.0,511.0,511.0,510.0,510.0,510.0,510.0,510.0,521.0,521.0,521.0,521.0,514.0,522.0,522.0,522.0,522.0,522.0,516.0,516.0,516.0,516.0,516.0,518.0,518.0,518.0,518.0,518.0,530.0,530.0,530.0,530.0,563.0,495.0,495.0,495.0,495.0,495.0,502.0,502.0,502.0,502.0,502.0,500.0,500.0,500.0,500.0,500.0,490.0,490.0,490.0,490.0,490.0,507.4888888888889,488.75555555555553,541.7333333333333,514.0,563.0,490.0
0,521.0,563.0,502.0,24.0,129.0,173.0,500.0,516.0,485.0,500.0,511.0,511.0,511.0,511.0,511.0,510.0,510.0,510.0,510.0,510.0,521.0,521.0,521.0,521.0,514.0,514.0,514.0,514.0,521.0,522.0,516.0,516.0,516.0,516.0,516.0,518.0,518.0,518.0,518.0,518.0,530.0,530.0,530.0,530.0,563.0,563.0,563.0,563.0,555.0,495.0,502.0,502.0,502.0,502.0,502.0,500.0,500.0,500.0,500.0,500.0,490.0,490.0,490.0,490.0,490.0,490.0,490.0,490.0,485.0,508.3333333333333,498.8,529.7333333333333,521.0,555.0,485.0
0,521.0,563.0,502.0,24.0,129.0,173.0,510.0,516.0,485.0,511.0,510.0,510.0,510.0,510.0,510.0,521.0,521.0,521.0,521.0,514.0,514.0,514.0,514.0,521.0,521.0,521.0,521.0,520.0,520.0,516.0,518.0,518.0,518.0,518.0,518.0,530.0,530.0,530.0,530.0,563.0,563.0,563.0,563.0,555.0,555.0,555.0,555.0,558.0,558.0,502.0,500.0,500.0,500.0,500.0,500.0,490.0,490.0,490.0,490.0,490.0,490.0,490.0,490.0,485.0,485.0,485.0,485.0,502.0,502.0,509.5111111111111,511.8222222222222,512.1555555555556,520.0,558.0,502.0
0,521.0,563.0,509.0,24.0,98.0,57.0,514.0,530.0,485.0,521.0,521.0,521.0,521.0,514.0,514.0,514.0,514.0,521.0,521.0,521.0,521.0,521.0,520.0,520.0,520.0,520.0,520.0,517.0,517.0,530.0,530.0,530.0,530.0,563.0,563.0,563.0,563.0,555.0,555.0,555.0,555.0,555.0,558.0,558.0,558.0,558.0,558.0,562.0,562.0,490.0,490.0,490.0,490.0,490.0,490.0,490.0,490.0,485.0,485.0,485.0,485.0,485.0,502.0,502.0,502.0,502.0,502.0,509.0,509.0,511.4222222222222,526.7111111111111,498.5111111111111,517.0,562.0,509.0
0,521.0,571.0,509.0,24.0,81.0,29.0,508.0,555.0,483.0,514.0,514.0,514.0,521.0,521.0,521.0,521.0,521.0,520.0,520.0,520.0,520.0,520.0,517.0,517.0,517.0,517.0,517.0,517.0,508.0,563.0,563.0,563.0,555.0,555.0,555.0,555.0,555.0,558.0,558.0,558.0,558.0,558.0,562.0,562.0,562.0,562.0,562.0,562.0,571.0,490.0,490.0,490.0,485.0,485.0,485.0,485.0,485.0,502.0,502.0,502.0,502.0,502.0,509.0,509.0,509.0,509.0,509.0,509.0,483.0,513.0444444444445,536.1777777777778,496.2,508.0,571.0,483.0
0,521.0,571.0,509.0,21.0,55.0,29.0,508.0,536.0,480.0,521.0,521.0,521.0,520.0,520.0,520.0,520.0,520.0,517.0,517.0,517.0,517.0,517.0,517.0,508.0,508.0,508.0,508.0,515.0,515.0,555.0,555.0,555.0,558.0,558.0,558.0,558.0,558.0,562.0,562.0,562.0,562.0,562.0,562.0,571.0,571.0,571.0,571.0,536.0,536.0,485.0,485.0,485.0,502.0,502.0,502.0,502.0,502.0,509.0,509.0,509.0,509.0,509.0,509.0,483.0,483.0,483.0,483.0,480.0,480.0,513.6444444444444,543.2222222222222,495.24444444444447,515.0,536.0,480.0
0,520.0,571.0,509.0,21.0,55.0,29.0,508.0,531.0,480.0,520.0,520.0,520.0,520.0,517.0,517.0,517.0,517.0,517.0,517.0,508.0,508.0,508.0,508.0,515.0,515.0,515.0,515.0,509.0,509.0,558.0,558.0,558.0,558.0,562.0,562.0,562.0,562.0,562.0,562.0,571.0,571.0,571.0,571.0,536.0,536.0,536.0,536.0,531.0,531.0,502.0,502.0,502.0,502.0,509.0,509.0,509.0,509.0,509.0,509.0,483.0,483.0,483.0,483.0,480.0,480.0,480.0,480.0,496.0,496.0,514.8444444444444,544.3555555555556,494.26666666666665,509.0,531.0,496.0
0,517.0,571.0,509.0,13.0,69.0,29.0,508.0,502.0,480.0,517.0,517.0,517.0,517.0,517.0,517.0,508.0,508.0,508.0,508.0,515.0,515.0,515.0,515.0,515.0,509.0,509.0,509.0,509.0,508.0,562.0,562.0,562.0,562.0,562.0,562.0,571.0,571.0,571.0,571.0,536.0,536.0,536.0,536.0,536.0,531.0,531.0,531.0,531.0,502.0,509.0,509.0,509.0,509.0,509.0,509.0,483.0,483.0,483.0,483.0,480.0,480.0,480.0,480.0,480.0,496.0,496.0,496.0,496.0,498.0,514.8888888888889,544.9111111111112,493.93333333333334,508.0,502.0,498.0
0,517.0,571.0,509.0,13.0,69.0,29.0,508.0,502.0,480.0,517.0,508.0,508.0,508.0,508.0,515.0,515.0,515.0,515.0,515.0,509.0,509.0,509.0,509.0,508.0,508.0,508.0,508.0,508.0,508.0,562.0,571.0,571.0,571.0,571.0,536.0,536.0,536.0,536.0,536.0,531.0,531.0,531.0,531.0,502.0,502.0,502.0,502.0,502.0,502.0,509.0,483.0,483.0,483.0,483.0,480.0,480.0,480.0,480.0,480.0,496.0,496.0,496.0,496.0,498.0,498.0,498.0,498.0,498.0,498.0,514.6222222222223,543.2222222222222,493.6222222222222,508.0,502.0,498.0
0,515.0,536.0,526.0,16.0,104.0,46.0,505.0,467.0,480.0,515.0,515.0,515.0,515.0,509.0,509.0,509.0,509.0,508.0,508.0,508.0,508.0,508.0,508.0,505.0,505.0,505.0,505.0,505.0,505.0,536.0,536.0,536.0,536.0,531.0,531.0,531.0,531.0,502.0,502.0,502.0,502.0,502.0,502.0,487.0,487.0,487.0,487.0,467.0,467.0,480.0,480.0,480.0,480.0,496.0,496.0,496.0,496.0,498.0,498.0,498.0,498.0,498.0,498.0,509.0,509.0,509.0,509.0,526.0,526.0,512.9777777777778,537.1333333333333,496.46666666666664,505.0,467.0,526.0
0,509.0,531.0,527.0,21.0,104.0,47.0,500.0,467.0,496.0,509.0,509.0,509.0,509.0,508.0,508.0,508.0,508.0,508.0,508.0,505.0,505.0,505.0,505.0,505.0,505.0,505.0,505.0,500.0,500.0,531.0,531.0,531.0,531.0,502.0,502.0,502.0,502.0,502.0,502.0,487.0,487.0,487.0,487.0,467.0,467.0,467.0,467.0,474.0,474.0,496.0,496.0,496.0,496.0,498.0,498.0,498.0,498.0,498.0,498.0,509.0,509.0,509.0,509.0,526.0,526.0,526.0,526.0,527.0,527.0,512.0666666666667,528.7555555555556,499.68888888888887,500.0,474.0,527.0
0,508.0,502.0,536.0,21.0,118.0,56.0,500.0,453.0,498.0,508.0,508.0,508.0,508.0,508.0,505.0,505.0,505.0,505.0,505.0,505.0,505.0,505.0,505.0,500.0,500.0,500.0,500.0,502.0,502.0,502.0,502.0,502.0,502.0,502.0,487.0,487.0,487.0,487.0,467.0,467.0,467.0,467.0,467.0,474.0,474.0,474.0,474.0,453.0,453.0,498.0,498.0,498.0,498.0,498.0,509.0,509.0,509.0,509.0,526.0,526.0,526.0,526.0,526.0,527.0,527.0,527.0,527.0,536.0,536.0,510.24444444444447,521.0888888888888,503.6222222222222,502.0,453.0,536.0
0,505.0,487.0,543.0,17.0,118.0,63.0,500.0,453.0,509.0,505.0,505.0,505.0,505.0,505.0,505.0,505.0,505.0,505.0,500.0,500.0,500.0,500.0,502.0,502.0,502.0,502.0,502.0,501.0,501.0,487.0,487.0,487.0,487.0,467.0,467.0,467.0,467.0,467.0,474.0,474.0,474.0,474.0,453.0,453.0,453.0,453.0,453.0,453.0,453.0,509.0,509.0,509.0,509.0,526.0,526.0,526.0,526.0,526.0,527.0,527.0,527.0,527.0,536.0,536.0,536.0,536.0,536.0,543.0,543.0,507.77777777777777,507.15555555555557,508.84444444444443,501.0,453.0,543.0
0,505.0,474.0,543.0,15.0,124.0,63.0,500.0,447.0,507.0,505.0,505.0,505.0,500.0,500.0,500.0,500.0,502.0,502.0,502.0,502.0,502.0,501.0,501.0,501.0,501.0,501.0,501.0,500.0,500.0,467.0,467.0,467.0,474.0,474.0,474.0,474.0,453.0,453.0,453.0,453.0,453.0,453.0,453.0,453.0,453.0,453.0,453.0,447.0,447.0,526.0,526.0,526.0,527.0,527.0,527.0,527.0,536.0,536.0,536.0,536.0,536.0,543.0,543.0,543.0,543.0,543.0,543.0,507.0,507.0,505.6,492.35555555555555,511.77777777777777,500.0,447.0,507.0
0,502.0,474.0,543.0,16.0,89.0,63.0,499.0,447.0,498.0,500.0,500.0,502.0,502.0,502.0,502.0,502.0,501.0,501.0,501.0,501.0,501.0,501.0,500.0,500.0,500.0,500.0,500.0,499.0,499.0,474.0,474.0,453.0,453.0,453.0,453.0,453.0,453.0,453.0,453.0,453.0,453.0,453.0,447.0,447.0,447.0,447.0,447.0,447.0,447.0,527.0,527.0,536.0,536.0,536.0,536.0,536.0,543.0,543.0,543.0,543.0,543.0,543.0,507.0,507.0,507.0,507.0,507.0,498.0,498.0,504.5111111111111,479.35555555555555,514.1111111111111,499.0,447.0,498.0
0,509.0,453.0,543.0,10.0,86.0,55.0,499.0,445.0,488.0,502.0,502.0,502.0,501.0,501.0,501.0,501.0,501.0,501.0,500.0,500.0,500.0,500.0,500.0,499.0,499.0,499.0,499.0,509.0,509.0,453.0,453.0,453.0,453.0,453.0,453.0,453.0,453.0,453.0,447.0,447.0,447.0,447.0,447.0,447.0,447.0,447.0,447.0,445.0,445.0,536.0,536.0,536.0,543.0,543.0,543.0,543.0,543.0,543.0,507.0,507.0,507.0,507.0,507.0,498.0,498.0,498.0,498.0,488.0,488.0,503.53333333333336,471.35555555555555,515.2666666666667,509.0,445.0,488.0
0,509.0,469.0,543.0,10.0,57.0,55.0,499.0,445.0,488.0,501.0,501.0,501.0,501.0,500.0,500.0,500.0,500.0,500.0,499.0,499.0,499.0,499.0,509.0,509.0,509.0,509.0,509.0,509.0,502.0,453.0,453.0,453.0,453.0,447.0,447.0,447.0,447.0,447.0,447.0,447.0,447.0,447.0,445.0,445.0,445.0,445.0,445.0,445.0,469.0,543.0,543.0,543.0,543.0,507.0,507.0,507.0,507.0,507.0,498.0,498.0,498.0,498.0,488.0,488.0,488.0,488.0,488.0,488.0,502.0,503.4,462.97777777777776,514.6444444444444,502.0,469.0,502.0
0,509.0,476.0,543.0,10.0,57.0,55.0,499.0,445.0,488.0,501.0,500.0,500.0,500.0,500.0,500.0,499.0,499.0,499.0,499.0,509.0,509.0,509.0,509.0,509.0,509.0,502.0,502.0,505.0,505.0,453.0,447.0,447.0,447.0,447.0,447.0,447.0,447.0,447.0,447.0,445.0,445.0,445.0,445.0,445.0,445.0,469.0,469.0,476.0,476.0,543.0,507.0,507.0,507.0,507.0,507.0,498.0,498.0,498.0,498.0,488.0,488.0,488.0,488.0,488.0,488.0,502.0,502.0,517.0,517.0,503.1333333333333,461.0888888888889,515.5777777777778,505.0,476.0,517.0
0,514.0,493.0,517.0,15.0,48.0,55.0,499.0,445.0,488.0,500.0,500.0,500.0,499.0,499.0,499.0,499.0,509.0,509.0,509.0,509.0,509.0,509.0,502.0,502.0,505.0,505.0,505.0,514.0,514.0,447.0,447.0,447.0,447.0,447.0,447.0,447.0,445.0,445.0,445.0,445.0,445.0,445.0,469.0,469.0,476.0,476.0,476.0,493.0,493.0,507.0,507.0,507.0,498.0,498.0,498.0,498.0,488.0,488.0,488.0,488.0,488.0,488.0,502.0,502.0,517.0,517.0,517.0,515.0,515.0,503.4,460.44444444444446,516.5111111111111,514.0,493.0,515.0
0,514.0,516.0,517.0,15.0,71.0,55.0,499.0,445.0,488.0,499.0,499.0,499.0,509.0,509.0,509.0,509.0,509.0,509.0,502.0,502.0,505.0,505.0,505.0,514.0,514.0,514.0,514.0,514.0,508.0,447.0,447.0,447.0,445.0,445.0,445.0,445.0,445.0,445.0,469.0,469.0,476.0,476.0,476.0,493.0,493.0,493.0,493.0,493.0,516.0,498.0,498.0,498.0,488.0,488.0,488.0,488.0,488.0,488.0,502.0,502.0,517.0,517.0,517.0,515.0,515.0,515.0,515.0,515.0,514.0,504.06666666666666,461.93333333333334,516.6444444444444,508.0,516.0,514.0
0,514.0,521.0,530.0,15.0,76.0,55.0,499.0,445.0,488.0,499.0,509.0,509.0,509.0,509.0,509.0,509.0,502.0,502.0,505.0,505.0,505.0,514.0,514.0,514.0,514.0,514.0,508.0,508.0,514.0,447.0,445.0,445.0,445.0,445.0,445.0,445.0,469.0,469.0,476.0,476.0,476.0,493.0,493.0,493.0,493.0,493.0,516.0,516.0,521.0,498.0,488.0,488.0,488.0,488.0,488.0,488.0,502.0,502.0,517.0,517.0,517.0,515.0,515.0,515.0,515.0,515.0,514.0,514.0,530.0,504.3333333333333,464.22222222222223,516.4666666666667,514.0,521.0,530.0
0,514.0,521.0,530.0,15.0,76.0,55.0,502.0,445.0,488.0,509.0,509.0,509.0,509.0,502.0,502.0,505.0,505.0,505.0,514.0,514.0,514.0,514.0,514.0,508.0,508.0,514.0,514.0,514.0,514.0,445.0,445.0,445.0,445.0,469.0,469.0,476.0,476.0,476.0,493.0,493.0,493.0,493.0,493.0,516.0,516.0,521.0,521.0,521.0,521.0,488.0,488.0,488.0,488.0,502.0,502.0,517.0,517.0,517.0,515.0,515.0,515.0,515.0,515.0,514.0,514.0,530.0,530.0,530.0,530.0,505.0444444444444,467.6666666666667,516.7111111111111,514.0,521.0,530.0
0,518.0,546.0,530.0,19.0,101.0,55.0,502.0,445.0,488.0,509.0,502.0,502.0,505.0,505.0,505.0,514.0,514.0,514.0,514.0,514.0,508.0,508.0,514.0,514.0,514.0,514.0,518.0,518.0,518.0,445.0,469.0,469.0,476.0,476.0,476.0,493.0,493.0,493.0,493.0,493.0,516.0,516.0,521.0,521.0,521.0,521.0,546.0,546.0,546.0,488.0,502.0,502.0,517.0,517.0,517.0,515.0,515.0,515.0,515.0,515.0,514.0,514.0,530.0,530.0,530.0,530.0,512.0,512.0,475.0,506.24444444444447,472.46666666666664,515.7111111111111,518.0,546.0,512.0
0,520.0,573.0,530.0,21.0,128.0,68.0,505.0,476.0,475.0,505.0,505.0,514.0,514.0,514.0,514.0,514.0,508.0,508.0,514.0,514.0,514.0,514.0,518.0,518.0,518.0,519.0,519.0,519.0,520.0,476.0,476.0,493.0,493.0,493.0,493.0,493.0,516.0,516.0,521.0,521.0,521.0,521.0,546.0,546.0,546.0,573.0,573.0,573.0,570.0,517.0,517.0,515.0,515.0,515.0,515.0,515.0,514.0,514.0,530.0,530.0,530.0,530.0,512.0,512.0,512.0,475.0,475.0,475.0,490.0,507.77777777777777,483.06666666666666,510.6222222222222,520.0,570.0,490.0
0,520.0,586.0,530.0,21.0,141.0,68.0,508.0,493.0,475.0,514.0,514.0,508.0,508.0,514.0,514.0,514.0,514.0,518.0,518.0,518.0,519.0,519.0,519.0,520.0,520.0,520.0,520.0,510.0,510.0,493.0,493.0,516.0,516.0,521.0,521.0,521.0,521.0,546.0,546.0,546.0,573.0,573.0,573.0,570.0,570.0,570.0,570.0,586.0,586.0,515.0,515.0,514.0,514.0,530.0,530.0,530.0,530.0,512.0,512.0,512.0,475.0,475.0,475.0,490.0,490.0,490.0,490.0,511.0,511.0,509.4222222222222,496.77777777777777,505.8222222222222,510.0,586.0,511.0
0,520.0,586.0,530.0,21.0,141.0,55.0,510.0,521.0,475.0,514.0,514.0,514.0,514.0,518.0,518.0,518.0,519.0,519.0,519.0,520.0,520.0,520.0,520.0,510.0,510.0,510.0,510.0,513.0,513.0,521.0,521.0,521.0,521.0,546.0,546.0,546.0,573.0,573.0,573.0,570.0,570.0,570.0,570.0,586.0,586.0,586.0,586.0,580.0,580.0,530.0,530.0,530.0,530.0,512.0,512.0,512.0,475.0,475.0,475.0,490.0,490.0,490.0,490.0,511.0,511.0,511.0,511.0,524.0,524.0,510.4,508.6,505.15555555555557,513.0,580.0,524.0
0,520.0,586.0,524.0,21.0,141.0,55.0,510.0,546.0,475.0,518.0,518.0,518.0,519.0,519.0,519.0,520.0,520.0,520.0,520.0,510.0,510.0,510.0,510.0,513.0,513.0,513.0,513.0,518.0,518.0,546.0,546.0,546.0,573.0,573.0,573.0,570.0,570.0,570.0,570.0,586.0,586.0,586.0,586.0,580.0,580.0,580.0,580.0,574.0,574.0,512.0,512.0,512.0,475.0,475.0,475.0,490.0,490.0,490.0,490.0,511.0,511.0,511.0,511.0,524.0,524.0,524.0,524.0,523.0,523.0,511.8,520.1555555555556,506.8222222222222,518.0,574.0,523.0
0,520.0,586.0,531.0,18.0,141.0,56.0,510.0,551.0,475.0,519.0,519.0,519.0,520.0,520.0,520.0,520.0,510.0,510.0,510.0,510.0,513.0,513.0,513.0,513.0,518.0,518.0,518.0,518.0,518.0,573.0,573.0,573.0,570.0,570.0,570.0,570.0,586.0,586.0,586.0,586.0,580.0,580.0,580.0,580.0,574.0,574.0,574.0,551.0,551.0,475.0,475.0,475.0,490.0,490.0,490.0,490.0,511.0,511.0,511.0,511.0,524.0,524.0,524.0,524.0,523.0,523.0,523.0,531.0,531.0,513.0666666666667,527.6,508.84444444444443,518.0,551.0,531.0
0,520.0,586.0,531.0,18.0,141.0,56.0,508.0,551.0,490.0,520.0,520.0,520.0,510.0,510.0,510.0,510.0,513.0,513.0,513.0,513.0,518.0,518.0,518.0,518.0,518.0,518.0,518.0,518.0,508.0,570.0,570.0,570.0,586.0,586.0,586.0,586.0,580.0,580.0,580.0,580.0,574.0,574.0,574.0,551.0,551.0,551.0,551.0,551.0,551.0,490.0,490.0,490.0,511.0,511.0,511.0,511.0,524.0,524.0,524.0,524.0,523.0,523.0,523.0,531.0,531.0,531.0,531.0,531.0,519.0,513.6444444444444,537.0222222222222,512.4,508.0,551.0,519.0
0,518.0,586.0,531.0,15.0,110.0,56.0,508.0,522.0,499.0,510.0,510.0,510.0,513.0,513.0,513.0,513.0,518.0,518.0,518.0,518.0,518.0,518.0,518.0,518.0,508.0,508.0,508.0,509.0,509.0,586.0,586.0,586.0,580.0,580.0,580.0,580.0,574.0,574.0,574.0,551.0,551.0,551.0,551.0,551.0,551.0,551.0,551.0,522.0,522.0,511.0,511.0,511.0,524.0,524.0,524.0,524.0,523.0,523.0,523.0,531.0,531.0,531.0,531.0,531.0,519.0,519.0,519.0,499.0,499.0,513.9111111111112,544.0888888888888,513.6444444444444,509.0,522.0,499.0
0,518.0,580.0,531.0,13.0,93.0,56.0,507.0,502.0,483.0,513.0,513.0,513.0,518.0,518.0,518.0,518.0,518.0,518.0,518.0,518.0,508.0,508.0,508.0,509.0,509.0,509.0,509.0,507.0,507.0,580.0,580.0,580.0,574.0,574.0,574.0,551.0,551.0,551.0,551.0,551.0,551.0,551.0,551.0,522.0,522.0,522.0,522.0,502.0,502.0,524.0,524.0,524.0,523.0,523.0,523.0,531.0,531.0,531.0,531.0,531.0,519.0,519.0,519.0,499.0,499.0,499.0,499.0,483.0,483.0,513.9777777777778,546.9111111111112,511.3777777777778,507.0,502.0,483.0
0,518.0,574.0,531.0,17.0,93.0,61.0,503.0,494.0,470.0,518.0,518.0,518.0,518.0,518.0,518.0,518.0,518.0,508.0,508.0,508.0,509.0,509.0,509.0,509.0,507.0,507.0,507.0,507.0,503.0,574.0,574.0,574.0,551.0,551.0,551.0,551.0,551.0,551.0,551.0,551.0,522.0,522.0,522.0,522.0,502.0,502.0,502.0,502.0,494.0,523.0,523.0,523.0,531.0,531.0,531.0,531.0,531.0,519.0,519.0,519.0,499.0,499.0,499.0,499.0,483.0,483.0,483.0,483.0,470.0,513.4222222222222,547.3333333333334,508.9555555555556,503.0,494.0,470.0
0,518.0,551.0,531.0,19.0,124.0,61.0,501.0,462.0,470.0,518.0,518.0,518.0,518.0,518.0,508.0,508.0,508.0,509.0,509.0,509.0,509.0,507.0,507.0,507.0,507.0,503.0,503.0,501.0,501.0,551.0,551.0,551.0,551.0,551.0,551.0,551.0,551.0,522.0,522.0,522.0,522.0,502.0,502.0,502.0,502.0,494.0,494.0,462.0,462.0,531.0,531.0,531.0,531.0,531.0,519.0,519.0,519.0,499.0,499.0,499.0,499.0,483.0,483.0,483.0,483.0,470.0,470.0,475.0,475.0,512.8666666666667,544.9555555555555,506.22222222222223,501.0,462.0,475.0
0,518.0,551.0,531.0,19.0,124.0,61.0,501.0,462.0,470.0,518.0,508.0,508.0,508.0,509.0,509.0,509.0,509.0,507.0,507.0,507.0,507.0,503.0,503.0,501.0,501.0,501.0,501.0,501.0,502.0,551.0,551.0,551.0,551.0,522.0,522.0,522.0,522.0,502.0,502.0,502.0,502.0,494.0,494.0,462.0,462.0,462.0,462.0,462.0,464.0,531.0,519.0,519.0,519.0,499.0,499.0,499.0,499.0,483.0,483.0,483.0,483.0,470.0,470.0,475.0,475.0,475.0,475.0,475.0,497.0,511.73333333333335,539.7555555555556,501.8222222222222,502.0,464.0,497.0
0,509.0,551.0,519.0,27.0,135.0,61.0,493.0,451.0,470.0,508.0,509.0,509.0,509.0,509.0,507.0,507.0,507.0,507.0,503.0,503.0,501.0,501.0,501.0,501.0,501.0,502.0,502.0,502.0,493.0,551.0,522.0,522.0,522.0,522.0,502.0,502.0,502.0,502.0,494.0,494.0,462.0,462.0,462.0,462.0,462.0,464.0,464.0,464.0,451.0,519.0,499.0,499.0,499.0,499.0,483.0,483.0,483.0,483.0,470.0,470.0,475.0,475.0,475.0,475.0,475.0,497.0,497.0,497.0,497.0,510.46666666666664,534.0,500.8222222222222,493.0,451.0,497.0
0,509.0,522.0,499.0,27.0,135.0,61.0,493.0,451.0,470.0,509.0,509.0,507.0,507.0,507.0,507.0,503.0,503.0,501.0,501.0,501.0,501.0,501.0,502.0,502.0,502.0,493.0,493.0,493.0,493.0,522.0,522.0,502.0,502.0,502.0,502.0,494.0,494.0,462.0,462.0,462.0,462.0,462.0,464.0,464.0,464.0,451.0,451.0,512.0,512.0,499.0,499.0,483.0,483.0,483.0,483.0,470.0,470.0,475.0,475.0,475.0,475.0,475.0,497.0,497.0,497.0,497.0,497.0,491.0,491.0,508.73333333333335,528.5777777777778,502.02222222222224,493.0,512.0,491.0
0,507.0,512.0,504.0,25.0,267.0,61.0,493.0,319.0,470.0,507.0,507.0,503.0,503.0,501.0,501.0,501.0,501.0,501.0,502.0,502.0,502.0,493.0,493.0,493.0,493.0,493.0,493.0,502.0,502.0,502.0,502.0,494.0,494.0,462.0,462.0,462.0,462.0,462.0,464.0,464.0,464.0,451.0,451.0,512.0,512.0,512.0,512.0,319.0,319.0,483.0,483.0,470.0,470.0,475.0,475.0,475.0,475.0,475.0,497.0,497.0,497.0,497.0,497.0,491.0,491.0,491.0,491.0,504.0,504.0,506.73333333333335,514.8444444444444,502.68888888888887,502.0,319.0,504.0
0,502.0,512.0,540.0,25.0,282.0,70.0,493.0,298.0,475.0,501.0,501.0,501.0,501.0,501.0,502.0,502.0,502.0,493.0,493.0,493.0,493.0,493.0,493.0,502.0,502.0,502.0,502.0,497.0,497.0,462.0,462.0,462.0,462.0,462.0,464.0,464.0,464.0,451.0,451.0,512.0,512.0,512.0,512.0,319.0,319.0,319.0,319.0,298.0,298.0,475.0,475.0,475.0,475.0,475.0,497.0,497.0,497.0,497.0,497.0,491.0,491.0,491.0,491.0,504.0,504.0,504.0,504.0,540.0,540.0,505.8,490.1777777777778,503.6666666666667,497.0,298.0,540.0
0,502.0,512.0,540.0,25.0,276.0,70.0,493.0,298.0,475.0,501.0,502.0,502.0,502.0,493.0,493.0,493.0,493.0,493.0,493.0,502.0,502.0,502.0,502.0,497.0,497.0,497.0,497.0,497.0,497.0,462.0,464.0,464.0,464.0,451.0,451.0,512.0,512.0,512.0,512.0,319.0,319.0,319.0,319.0,298.0,298.0,298.0,298.0,298.0,298.0,475.0,497.0,497.0,497.0,497.0,497.0,491.0,491.0,491.0,491.0,504.0,504.0,504.0,504.0,540.0,540.0,540.0,540.0,540.0,540.0,504.3777777777778,465.1111111111111,505.0888888888889,497.0,298.0,540.0
0,502.0,512.0,583.0,25.0,316.0,113.0,493.0,235.0,491.0,493.0,493.0,493.0,493.0,493.0,493.0,502.0,502.0,502.0,502.0,497.0,497.0,497.0,497.0,497.0,497.0,499.0,499.0,499.0,499.0,451.0,451.0,512.0,512.0,512.0,512.0,319.0,319.0,319.0,319.0,298.0,298.0,298.0,298.0,298.0,298.0,235.0,235.0,235.0,235.0,497.0,497.0,491.0,491.0,491.0,491.0,504.0,504.0,504.0,504.0,540.0,540.0,540.0,540.0,540.0,540.0,583.0,583.0,583.0,583.0,502.68888888888887,435.4888888888889,510.24444444444447,499.0,235.0,583.0
0,508.0,512.0,583.0,25.0,316.0,113.0,493.0,235.0,491.0,493.0,493.0,493.0,502.0,502.0,502.0,497.0,497.0,497.0,497.0,497.0,497.0,499.0,499.0,499.0,499.0,504.0,504.0,508.0,508.0,512.0,512.0,512.0,319.0,319.0,319.0,298.0,298.0,298.0,298.0,298.0,298.0,235.0,235.0,235.0,235.0,498.0,498.0,508.0,508.0,491.0,491.0,491.0,504.0,504.0,504.0,540.0,540.0,540.0,540.0,540.0,540.0,583.0,583.0,583.0,583.0,556.0,556.0,498.0,498.0,501.84444444444443,432.1777777777778,510.6222222222222,508.0,508.0,498.0
0,511.0,641.0,583.0,18.0,406.0,132.0,497.0,235.0,451.0,502.0,502.0,497.0,497.0,497.0,497.0,497.0,497.0,499.0,499.0,499.0,499.0,504.0,504.0,508.0,508.0,508.0,508.0,511.0,511.0,319.0,319.0,298.0,298.0,298.0,298.0,298.0,298.0,235.0,235.0,235.0,235.0,498.0,498.0,508.0,508.0,508.0,508.0,641.0,641.0,504.0,504.0,540.0,540.0,540.0,540.0,540.0,540.0,583.0,583.0,583.0,583.0,556.0,556.0,498.0,498.0,498.0,498.0,451.0,451.0,501.73333333333335,433.9555555555556,506.3777777777778,511.0,641.0,451.0
0,511.0,641.0,583.0,18.0,406.0,132.0,497.0,235.0,451.0,497.0,497.0,497.0,497.0,499.0,499.0,499.0,499.0,504.0,504.0,508.0,508.0,508.0,508.0,511.0,511.0,511.0,511.0,510.0,510.0,298.0,298.0,298.0,298.0,235.0,235.0,235.0,235.0,498.0,498.0,508.0,508.0,508.0,508.0,641.0,641.0,641.0,641.0,631.0,631.0,540.0,540.0,540.0,540.0,583.0,583.0,583.0,583.0,556.0,556.0,498.0,498.0,498.0,498.0,451.0,451.0,451.0,451.0,465.0,465.0,501.9111111111111,444.53333333333336,503.0888888888889,510.0,631.0,465.0
0,513.0,641.0,583.0,20.0,406.0,132.0,499.0,235.0,451.0,499.0,499.0,499.0,499.0,504.0,504.0,508.0,508.0,508.0,508.0,511.0,511.0,511.0,511.0,510.0,510.0,510.0,510.0,513.0,513.0,235.0,235.0,235.0,235.0,498.0,498.0,508.0,508.0,508.0,508.0,641.0,641.0,641.0,641.0,631.0,631.0,631.0,631.0,619.0,619.0,583.0,583.0,583.0,583.0,556.0,556.0,498.0,498.0,498.0,498.0,451.0,451.0,451.0,451.0,465.0,465.0,465.0,465.0,525.0,525.0,502.4,455.64444444444445,504.44444444444446,513.0,619.0,525.0
0,516.0,641.0,583.0,23.0,406.0,132.0,499.0,235.0,451.0,499.0,504.0,504.0,508.0,508.0,508.0,508.0,511.0,511.0,511.0,511.0,510.0,510.0,510.0,510.0,513.0,513.0,513.0,516.0,516.0,235.0,498.0,498.0,508.0,508.0,508.0,508.0,641.0,641.0,641.0,641.0,631.0,631.0,631.0,631.0,619.0,619.0,619.0,567.0,567.0,583.0,556.0,556.0,498.0,498.0,498.0,498.0,451.0,451.0,451.0,451.0,465.0,465.0,465.0,465.0,525.0,525.0,525.0,566.0,566.0,503.2888888888889,463.0888888888889,509.7111111111111,516.0,567.0,566.0
0,523.0,641.0,566.0,30.0,406.0,132.0,508.0,508.0,451.0,508.0,508.0,508.0,511.0,511.0,511.0,511.0,510.0,510.0,510.0,510.0,513.0,513.0,513.0,516.0,516.0,516.0,516.0,523.0,523.0,508.0,508.0,508.0,641.0,641.0,641.0,641.0,631.0,631.0,631.0,631.0,619.0,619.0,619.0,567.0,567.0,567.0,567.0,550.0,550.0,498.0,498.0,498.0,451.0,451.0,451.0,451.0,465.0,465.0,465.0,465.0,525.0,525.0,525.0,566.0,566.0,566.0,566.0,521.0,521.0,504.9111111111111,471.6222222222222,515.3111111111111,523.0,550.0,521.0
0,523.0,641.0,566.0,30.0,406.0,132.0,510.0,550.0,451.0,511.0,511.0,511.0,511.0,510.0,510.0,510.0,510.0,513.0,513.0,513.0,516.0,516.0,516.0,516.0,523.0,523.0,523.0,523.0,516.0,641.0,641.0,641.0,641.0,631.0,631.0,631.0,631.0,619.0,619.0,619.0,567.0,567.0,567.0,567.0,550.0,550.0,550.0,550.0,580.0,451.0,451.0,451.0,451.0,465.0,465.0,465.0,465.0,525.0,525.0,525.0,566.0,566.0,566.0,566.0,521.0,521.0,521.0,521.0,504.0,506.35555555555555,478.31111111111113,516.5333333333333,516.0,580.0,504.0
0,523.0,631.0,566.0,26.0,406.0,132.0,510.0,550.0,465.0,510.0,510.0,510.0,513.0,513.0,513.0,516.0,516.0,516.0,516.0,523.0,523.0,523.0,523.0,516.0,516.0,516.0,516.0,515.0,515.0,631.0,631.0,631.0,619.0,619.0,619.0,567.0,567.0,567.0,567.0,550.0,550.0,550.0,550.0,580.0,580.0,580.0,580.0,562.0,562.0,465.0,465.0,465.0,525.0,525.0,525.0,566.0,566.0,566.0,566.0,521.0,521.0,521.0,521.0,504.0,504.0,504.0,504.0,514.0,514.0,508.8666666666667,486.4222222222222,518.2888888888889,515.0,562.0,514.0
0,523.0,619.0,566.0,26.0,406.0,132.0,513.0,542.0,504.0,513.0,513.0,513.0,516.0,516.0,516.0,516.0,523.0,523.0,523.0,523.0,516.0,516.0,516.0,516.0,515.0,515.0,515.0,519.0,519.0,619.0,619.0,619.0,567.0,567.0,567.0,567.0,550.0,550.0,550.0,550.0,580.0,580.0,580.0,580.0,562.0,562.0,562.0,542.0,542.0,525.0,525.0,525.0,566.0,566.0,566.0,566.0,521.0,521.0,521.0,521.0,504.0,504.0,504.0,504.0,514.0,514.0,514.0,509.0,509.0,509.9111111111111,501.73333333333335,518.7333333333333,519.0,542.0,509.0
0,523.0,580.0,566.0,26.0,406.0,132.0,515.0,542.0,492.0,516.0,516.0,516.0,516.0,523.0,523.0,523.0,523.0,516.0,516.0,516.0,516.0,515.0,515.0,515.0,519.0,519.0,519.0,515.0,515.0,567.0,567.0,567.0,567.0,550.0,550.0,550.0,550.0,580.0,580.0,580.0,580.0,562.0,562.0,562.0,542.0,542.0,542.0,555.0,555.0,566.0,566.0,566.0,566.0,521.0,521.0,521.0,521.0,504.0,504.0,504.0,504.0,514.0,514.0,514.0,509.0,509.0,509.0,492.0,492.0,511.0888888888889,518.1111111111111,516.7111111111111,515.0,555.0,492.0
0,523.0,580.0,521.0,24.0,406.0,132.0,513.0,535.0,480.0,523.0,523.0,523.0,523.0,516.0,516.0,516.0,516.0,515.0,515.0,515.0,519.0,519.0,519.0,515.0,515.0,515.0,515.0,513.0,513.0,550.0,550.0,550.0,550.0,580.0,580.0,580.0,580.0,562.0,562.0,562.0,542.0,542.0,542.0,555.0,555.0,555.0,555.0,535.0,535.0,521.0,521.0,521.0,521.0,504.0,504.0,504.0,504.0,514.0,514.0,514.0,509.0,509.0,509.0,492.0,492.0,492.0,492.0,480.0,480.0,512.6,540.0666666666667,511.9111111111111,513.0,535.0,480.0
0,523.0,580.0,521.0,24.0,406.0,132.0,503.0,533.0,477.0,523.0,516.0,516.0,516.0,516.0,515.0,515.0,515.0,519.0,519.0,519.0,515.0,515.0,515.0,515.0,513.0,513.0,513.0,503.0,503.0,550.0,580.0,580.0,580.0,580.0,562.0,562.0,562.0,542.0,542.0,542.0,555.0,555.0,555.0,555.0,535.0,535.0,535.0,533.0,533.0,521.0,504.0,504.0,504.0,504.0,514.0,514.0,514.0,509.0,509.0,509.0,492.0,492.0,492.0,492.0,480.0,480.0,480.0,477.0,477.0,513.0888888888888,559.9777777777778,504.9111111111111,503.0,533.0,477.0
0,519.0,562.0,516.0,20.0,139.0,115.0,503.0,502.0,477.0,515.0,515.0,515.0,519.0,519.0,519.0,515.0,515.0,515.0,515.0,513.0,513.0,513.0,503.0,503.0,503.0,503.0,503.0,506.0,506.0,562.0,562.0,562.0,542.0,542.0,542.0,555.0,555.0,555.0,555.0,535.0,535.0,535.0,533.0,533.0,533.0,533.0,533.0,502.0,502.0,514.0,514.0,514.0,509.0,509.0,509.0,492.0,492.0,492.0,492.0,480.0,480.0,480.0,477.0,477.0,477.0,477.0,477.0,516.0,516.0,513.0444444444445,567.8888888888889,499.84444444444443,506.0,502.0,516.0
0,519.0,555.0,562.0,20.0,156.0,115.0,503.0,485.0,477.0,519.0,519.0,515.0,515.0,515.0,515.0,513.0,513.0,513.0,503.0,503.0,503.0,503.0,503.0,506.0,506.0,506.0,506.0,504.0,504.0,542.0,542.0,555.0,555.0,555.0,555.0,535.0,535.0,535.0,533.0,533.0,533.0,533.0,533.0,502.0,502.0,502.0,502.0,485.0,485.0,509.0,509.0,492.0,492.0,492.0,492.0,480.0,480.0,480.0,477.0,477.0,477.0,477.0,477.0,516.0,516.0,516.0,516.0,562.0,562.0,512.6444444444444,560.6888888888889,505.5777777777778,504.0,485.0,562.0
0,515.0,555.0,562.0,22.0,150.0,101.0,501.0,481.0,477.0,515.0,515.0,515.0,513.0,513.0,513.0,503.0,503.0,503.0,503.0,503.0,506.0,506.0,506.0,506.0,504.0,504.0,504.0,504.0,501.0,555.0,555.0,555.0,535.0,535.0,535.0,533.0,533.0,533.0,533.0,533.0,502.0,502.0,502.0,502.0,485.0,485.0,485.0,485.0,481.0,492.0,492.0,492.0,480.0,480.0,480.0,477.0,477.0,477.0,477.0,477.0,516.0,516.0,516.0,516.0,562.0,562.0,562.0,562.0,525.0,512.1333333333333,550.4222222222222,511.84444444444443,501.0,481.0,525.0
0,513.0,535.0,562.0,22.0,161.0,89.0,501.0,458.0,477.0,513.0,513.0,513.0,503.0,503.0,503.0,503.0,503.0,506.0,506.0,506.0,506.0,504.0,504.0,504.0,504.0,501.0,501.0,505.0,505.0,535.0,535.0,535.0,533.0,533.0,533.0,533.0,533.0,502.0,502.0,502.0,502.0,485.0,485.0,485.0,485.0,481.0,481.0,458.0,458.0,480.0,480.0,480.0,477.0,477.0,477.0,477.0,477.0,516.0,516.0,516.0,516.0,562.0,562.0,562.0,562.0,525.0,525.0,505.0,505.0,511.7111111111111,539.4,514.9555555555555,505.0,458.0,505.0
0,506.0,533.0,562.0,24.0,122.0,89.0,499.0,458.0,477.0,503.0,503.0,503.0,503.0,506.0,506.0,506.0,504.0,504.0,504.0,504.0,501.0,501.0,505.0,505.0,505.0,505.0,505.0,499.0,499.0,533.0,533.0,533.0,533.0,502.0,502.0,502.0,485.0,485.0,485.0,485.0,481.0,481.0,458.0,458.0,458.0,458.0,458.0,465.0,465.0,477.0,477.0,477.0,477.0,516.0,516.0,516.0,562.0,562.0,562.0,562.0,525.0,525.0,505.0,505.0,505.0,505.0,505.0,502.0,502.0,510.8,526.4,512.2,499.0,465.0,502.0
0,507.0,502.0,562.0,24.0,125.0,96.0,499.0,455.0,466.0,506.0,506.0,506.0,506.0,504.0,504.0,504.0,504.0,501.0,501.0,505.0,505.0,505.0,505.0,505.0,499.0,499.0,499.0,507.0,507.0,502.0,502.0,502.0,502.0,485.0,485.0,485.0,485.0,481.0,481.0,458.0,458.0,458.0,458.0,458.0,465.0,465.0,465.0,455.0,455.0,516.0,516.0,516.0,516.0,562.0,562.0,562.0,562.0,525.0,525.0,505.0,505.0,505.0,505.0,505.0,502.0,502.0,502.0,466.0,466.0,509.4888888888889,517.2666666666667,505.9111111111111,507.0,455.0,466.0
0,507.0,502.0,562.0,20.0,125.0,96.0,499.0,455.0,466.0,506.0,504.0,504.0,504.0,504.0,501.0,501.0,505.0,505.0,505.0,505.0,505.0,499.0,499.0,499.0,507.0,507.0,507.0,504.0,504.0,502.0,485.0,485.0,485.0,485.0,481.0,481.0,458.0,458.0,458.0,458.0,458.0,465.0,465.0,465.0,455.0,455.0,455.0,458.0,458.0,516.0,562.0,562.0,562.0,562.0,525.0,525.0,505.0,505.0,505.0,505.0,505.0,502.0,502.0,502.0,466.0,466.0,466.0,499.0,499.0,508.2888888888889,511.06666666666666,503.7111111111111,504.0,458.0,499.0
0,507.0,485.0,562.0,22.0,125.0,96.0,497.0,455.0,466.0,504.0,504.0,501.0,501.0,505.0,505.0,505.0,505.0,505.0,499.0,499.0,499.0,507.0,507.0,507.0,504.0,504.0,504.0,497.0,497.0,485.0,485.0,481.0,481.0,458.0,458.0,458.0,458.0,458.0,465.0,465.0,465.0,455.0,455.0,455.0,458.0,458.0,458.0,478.0,478.0,562.0,562.0,525.0,525.0,505.0,505.0,505.0,505.0,505.0,502.0,502.0,502.0,466.0,466.0,466.0,499.0,499.0,499.0,529.0,529.0,507.1777777777778,503.8222222222222,504.7111111111111,497.0,478.0,529.0
0,507.0,478.0,529.0,22.0,100.0,96.0,497.0,455.0,466.0,505.0,505.0,505.0,505.0,499.0,499.0,499.0,507.0,507.0,507.0,504.0,504.0,504.0,497.0,497.0,497.0,497.0,497.0,505.0,505.0,458.0,458.0,458.0,458.0,465.0,465.0,465.0,455.0,455.0,455.0,458.0,458.0,458.0,478.0,478.0,478.0,478.0,478.0,474.0,474.0,505.0,505.0,505.0,505.0,502.0,502.0,502.0,466.0,466.0,466.0,499.0,499.0,499.0,529.0,529.0,529.0,529.0,529.0,520.0,520.0,505.4222222222222,494.35555555555555,506.31111111111113,505.0,474.0,520.0
0,508.0,495.0,529.0,18.0,100.0,96.0,497.0,455.0,466.0,505.0,499.0,499.0,499.0,507.0,507.0,507.0,504.0,504.0,504.0,497.0,497.0,497.0,497.0,497.0,505.0,505.0,505.0,505.0,508.0,458.0,465.0,465.0,465.0,455.0,455.0,455.0,458.0,458.0,458.0,478.0,478.0,478.0,478.0,478.0,474.0,474.0,474.0,474.0,495.0,505.0,502.0,502.0,502.0,466.0,466.0,466.0,499.0,499.0,499.0,529.0,529.0,529.0,529.0,529.0,520.0,520.0,520.0,520.0,479.0,504.64444444444445,490.0,506.5111111111111,508.0,495.0,479.0
0,508.0,495.0,529.0,16.0,80.0,96.0,497.0,455.0,466.0,507.0,507.0,507.0,504.0,504.0,504.0,497.0,497.0,497.0,497.0,497.0,505.0,505.0,505.0,505.0,508.0,508.0,508.0,508.0,506.0,455.0,455.0,455.0,458.0,458.0,458.0,478.0,478.0,478.0,478.0,478.0,474.0,474.0,474.0,474.0,495.0,495.0,495.0,495.0,486.0,466.0,466.0,466.0,499.0,499.0,499.0,529.0,529.0,529.0,529.0,529.0,520.0,520.0,520.0,520.0,479.0,479.0,479.0,479.0,479.0,504.02222222222224,484.9111111111111,505.6222222222222,506.0,486.0,479.0
0,509.0,497.0,529.0,12.0,78.0,96.0,497.0,458.0,479.0,504.0,504.0,504.0,497.0,497.0,497.0,497.0,497.0,505.0,505.0,505.0,505.0,508.0,508.0,508.0,508.0,506.0,506.0,506.0,509.0,458.0,458.0,458.0,478.0,478.0,478.0,478.0,478.0,474.0,474.0,474.0,474.0,495.0,495.0,495.0,495.0,486.0,486.0,486.0,497.0,499.0,499.0,499.0,529.0,529.0,529.0,529.0,529.0,520.0,520.0,520.0,520.0,479.0,479.0,479.0,479.0,479.0,479.0,479.0,494.0,503.84444444444443,481.93333333333334,505.9555555555556,509.0,497.0,494.0
0,511.0,521.0,529.0,14.0,78.0,96.0,497.0,474.0,479.0,497.0,497.0,497.0,497.0,497.0,505.0,505.0,505.0,505.0,508.0,508.0,508.0,508.0,506.0,506.0,506.0,509.0,509.0,511.0,511.0,478.0,478.0,478.0,478.0,478.0,474.0,474.0,474.0,474.0,495.0,495.0,495.0,495.0,486.0,486.0,486.0,497.0,497.0,521.0,521.0,529.0,529.0,529.0,529.0,529.0,520.0,520.0,520.0,520.0,479.0,479.0,479.0,479.0,479.0,479.0,479.0,494.0,494.0,490.0,490.0,504.3333333333333,480.6,506.9111111111111,511.0,521.0,490.0
0,513.0,521.0,529.0,16.0,66.0,96.0,497.0,474.0,472.0,497.0,497.0,505.0,505.0,505.0,505.0,508.0,508.0,508.0,508.0,506.0,506.0,506.0,509.0,509.0,511.0,511.0,511.0,513.0,513.0,478.0,478.0,474.0,474.0,474.0,474.0,495.0,495.0,495.0,495.0,486.0,486.0,486.0,497.0,497.0,521.0,521.0,521.0,517.0,517.0,529.0,529.0,520.0,520.0,520.0,520.0,479.0,479.0,479.0,479.0,479.0,479.0,479.0,494.0,494.0,490.0,490.0,490.0,472.0,472.0,504.8222222222222,481.0,505.24444444444447,513.0,517.0,472.0
0,525.0,521.0,520.0,28.0,66.0,96.0,505.0,474.0,472.0,505.0,505.0,505.0,508.0,508.0,508.0,508.0,506.0,506.0,506.0,509.0,509.0,511.0,511.0,511.0,513.0,513.0,513.0,525.0,525.0,474.0,474.0,474.0,495.0,495.0,495.0,495.0,486.0,486.0,486.0,497.0,497.0,521.0,521.0,521.0,517.0,517.0,517.0,504.0,504.0,520.0,520.0,520.0,479.0,479.0,479.0,479.0,479.0,479.0,479.0,494.0,494.0,490.0,490.0,490.0,472.0,472.0,472.0,479.0,479.0,505.8666666666667,481.8,501.6,525.0,504.0,479.0
0,525.0,531.0,499.0,28.0,76.0,63.0,506.0,486.0,472.0,508.0,508.0,508.0,506.0,506.0,506.0,509.0,509.0,511.0,511.0,511.0,513.0,513.0,513.0,525.0,525.0,525.0,525.0,517.0,517.0,495.0,495.0,495.0,486.0,486.0,486.0,497.0,497.0,521.0,521.0,521.0,517.0,517.0,517.0,504.0,504.0,504.0,504.0,531.0,531.0,479.0,479.0,479.0,479.0,479.0,479.0,494.0,494.0,490.0,490.0,490.0,472.0,472.0,472.0,479.0,479.0,479.0,479.0,499.0,499.0,507.44444444444446,484.77777777777777,495.93333333333334,517.0,531.0,499.0
0,525.0,531.0,529.0,28.0,76.0,63.0,506.0,486.0,472.0,506.0,506.0,509.0,509.0,511.0,511.0,511.0,513.0,513.0,513.0,525.0,525.0,525.0,525.0,517.0,517.0,517.0,517.0,523.0,523.0,486.0,486.0,497.0,497.0,521.0,521.0,521.0,517.0,517.0,517.0,504.0,504.0,504.0,504.0,531.0,531.0,531.0,531.0,521.0,521.0,479.0,479.0,494.0,494.0,490.0,490.0,490.0,472.0,472.0,472.0,479.0,479.0,479.0,479.0,499.0,499.0,499.0,499.0,529.0,529.0,508.8666666666667,490.31111111111113,496.2888888888889,523.0,521.0,529.0
0,525.0,549.0,542.0,28.0,94.0,76.0,511.0,504.0,472.0,511.0,511.0,511.0,513.0,513.0,513.0,525.0,525.0,525.0,525.0,517.0,517.0,517.0,517.0,523.0,523.0,523.0,523.0,519.0,519.0,521.0,521.0,521.0,517.0,517.0,517.0,504.0,504.0,504.0,504.0,531.0,531.0,531.0,531.0,521.0,521.0,521.0,521.0,549.0,549.0,490.0,490.0,490.0,472.0,472.0,472.0,479.0,479.0,479.0,479.0,499.0,499.0,499.0,499.0,529.0,529.0,529.0,529.0,542.0,542.0,510.55555555555554,496.84444444444443,499.1333333333333,519.0,549.0,542.0
0,525.0,561.0,548.0,28.0,103.0,76.0,507.0,504.0,472.0,513.0,513.0,525.0,525.0,525.0,525.0,517.0,517.0,517.0,517.0,523.0,523.0,523.0,523.0,519.0,519.0,519.0,519.0,507.0,507.0,517.0,517.0,504.0,504.0,504.0,504.0,531.0,531.0,531.0,531.0,521.0,521.0,521.0,521.0,549.0,549.0,549.0,549.0,561.0,561.0,472.0,472.0,479.0,479.0,479.0,479.0,499.0,499.0,499.0,499.0,529.0,529.0,529.0,529.0,542.0,542.0,542.0,542.0,548.0,548.0,511.26666666666665,505.5111111111111,505.35555555555555,507.0,561.0,548.0
0,525.0,561.0,548.0,28.0,87.0,76.0,507.0,504.0,479.0,525.0,525.0,517.0,517.0,517.0,517.0,523.0,523.0,523.0,523.0,519.0,519.0,519.0,519.0,507.0,507.0,507.0,507.0,507.0,516.0,504.0,504.0,531.0,531.0,531.0,531.0,521.0,521.0,521.0,521.0,549.0,549.0,549.0,549.0,561.0,561.0,561.0,561.0,561.0,529.0,479.0,479.0,499.0,499.0,499.0,499.0,529.0,529.0,529.0,529.0,542.0,542.0,542.0,542.0,548.0,548.0,548.0,548.0,548.0,546.0,511.8888888888889,513.5111111111111,509.0,516.0,529.0,546.0
0,523.0,561.0,554.0,28.0,87.0,82.0,507.0,515.0,499.0,517.0,517.0,517.0,523.0,523.0,523.0,523.0,519.0,519.0,519.0,519.0,507.0,507.0,507.0,507.0,507.0,516.0,516.0,513.0,513.0,531.0,531.0,531.0,521.0,521.0,521.0,521.0,549.0,549.0,549.0,549.0,561.0,561.0,561.0,561.0,561.0,529.0,529.0,515.0,515.0,499.0,499.0,499.0,529.0,529.0,529.0,529.0,542.0,542.0,542.0,542.0,548.0,548.0,548.0,548.0,548.0,546.0,546.0,554.0,554.0,513.0222222222222,516.2888888888889,510.4888888888889,513.0,515.0,554.0
0,523.0,561.0,554.0,20.0,87.0,82.0,506.0,493.0,529.0,523.0,523.0,523.0,519.0,519.0,519.0,519.0,507.0,507.0,507.0,507.0,507.0,516.0,516.0,513.0,513.0,513.0,513.0,506.0,506.0,521.0,521.0,521.0,549.0,549.0,549.0,549.0,561.0,561.0,561.0,561.0,561.0,529.0,529.0,515.0,515.0,515.0,515.0,493.0,493.0,529.0,529.0,529.0,542.0,542.0,542.0,542.0,548.0,548.0,548.0,548.0,548.0,546.0,546.0,554.0,554.0,554.0,554.0,538.0,538.0,513.6,518.8666666666667,512.6,506.0,493.0,538.0
0,519.0,561.0,554.0,20.0,110.0,82.0,505.0,451.0,510.0,519.0,519.0,519.0,519.0,507.0,507.0,507.0,507.0,507.0,516.0,516.0,513.0,513.0,513.0,513.0,506.0,506.0,506.0,505.0,505.0,549.0,549.0,549.0,549.0,561.0,561.0,561.0,561.0,561.0,529.0,529.0,515.0,515.0,515.0,515.0,493.0,493.0,493.0,451.0,451.0,542.0,542.0,542.0,542.0,548.0,548.0,548.0,548.0,548.0,546.0,546.0,554.0,554.0,554.0,554.0,538.0,538.0,538.0,510.0,510.0,513.4888888888889,517.3333333333334,514.3777777777777,505.0,451.0,510.0
0,519.0,561.0,554.0,20.0,110.0,82.0,505.0,451.0,499.0,519.0,507.0,507.0,507.0,507.0,507.0,516.0,516.0,513.0,513.0,513.0,513.0,506.0,506.0,506.0,505.0,505.0,505.0,505.0,509.0,549.0,561.0,561.0,561.0,561.0,561.0,529.0,529.0,515.0,515.0,515.0,515.0,493.0,493.0,493.0,451.0,451.0,451.0,451.0,497.0,542.0,548.0,548.0,548.0,548.0,548.0,546.0,546.0,554.0,554.0,554.0,554.0,538.0,538.0,538.0,510.0,510.0,510.0,510.0,499.0,513.4222222222222,515.6222222222223,516.2,509.0,497.0,499.0
0,516.0,561.0,554.0,22.0,110.0,82.0,503.0,451.0,499.0,507.0,507.0,516.0,516.0,513.0,513.0,513.0,513.0,506.0,506.0,506.0,505.0,505.0,505.0,505.0,509.0,509.0,509.0,503.0,503.0,561.0,561.0,529.0,529.0,515.0,515.0,515.0,515.0,493.0,493.0,493.0,451.0,451.0,451.0,451.0,497.0,497.0,497.0,501.0,501.0,548.0,548.0,546.0,546.0,554.0,554.0,554.0,554.0,538.0,538.0,538.0,510.0,510.0,510.0,510.0,499.0,499.0,499.0,513.0,513.0,513.2888888888889,516.2888888888889,517.9333333333333,503.0,501.0,513.0
0,516.0,529.0,554.0,25.0,110.0,82.0,500.0,451.0,499.0,516.0,513.0,513.0,513.0,513.0,506.0,506.0,506.0,505.0,505.0,505.0,505.0,509.0,509.0,509.0,503.0,503.0,503.0,500.0,500.0,529.0,515.0,515.0,515.0,515.0,493.0,493.0,493.0,451.0,451.0,451.0,451.0,497.0,497.0,497.0,501.0,501.0,501.0,497.0,497.0,546.0,554.0,554.0,554.0,554.0,538.0,538.0,538.0,510.0,510.0,510.0,510.0,499.0,499.0,499.0,513.0,513.0,513.0,509.0,509.0,512.6222222222223,514.7777777777778,519.2888888888889,500.0,497.0,509.0
0,513.0,515.0,554.0,25.0,110.0,75.0,500.0,451.0,499.0,513.0,513.0,506.0,506.0,506.0,505.0,505.0,505.0,505.0,509.0,509.0,509.0,503.0,503.0,503.0,500.0,500.0,500.0,500.0,500.0,515.0,515.0,493.0,493.0,493.0,451.0,451.0,451.0,451.0,497.0,497.0,497.0,501.0,501.0,501.0,497.0,497.0,497.0,497.0,498.0,554.0,554.0,538.0,538.0,538.0,510.0,510.0,510.0,510.0,499.0,499.0,499.0,513.0,513.0,513.0,509.0,509.0,509.0,509.0,512.0,511.75555555555553,513.4666666666667,521.8222222222222,500.0,498.0,512.0
0,509.0,501.0,538.0,28.0,110.0,75.0,497.0,451.0,499.0,506.0,506.0,505.0,505.0,505.0,505.0,509.0,509.0,509.0,503.0,503.0,503.0,500.0,500.0,500.0,500.0,500.0,497.0,497.0,497.0,493.0,493.0,451.0,451.0,451.0,451.0,497.0,497.0,497.0,501.0,501.0,501.0,497.0,497.0,497.0,497.0,498.0,489.0,489.0,489.0,538.0,538.0,510.0,510.0,510.0,510.0,499.0,499.0,499.0,513.0,513.0,513.0,509.0,509.0,509.0,512.0,512.0,511.0,511.0,511.0,509.9555555555556,512.6666666666666,523.9777777777778,497.0,489.0,511.0
0,509.0,501.0,513.0,26.0,110.0,55.0,497.0,451.0,499.0,505.0,509.0,509.0,509.0,503.0,503.0,503.0,500.0,500.0,500.0,500.0,500.0,500.0,497.0,497.0,497.0,497.0,497.0,500.0,500.0,451.0,497.0,497.0,497.0,501.0,501.0,501.0,497.0,497.0,497.0,497.0,498.0,498.0,489.0,489.0,489.0,489.0,489.0,477.0,477.0,510.0,499.0,499.0,499.0,513.0,513.0,513.0,509.0,509.0,509.0,509.0,512.0,512.0,511.0,511.0,511.0,511.0,511.0,505.0,505.0,507.68888888888887,508.06666666666666,525.4888888888889,500.0,477.0,505.0
0,503.0,501.0,514.0,23.0,110.0,55.0,496.0,477.0,505.0,503.0,500.0,500.0,500.0,500.0,500.0,500.0,497.0,497.0,497.0,497.0,497.0,500.0,500.0,500.0,500.0,500.0,500.0,496.0,496.0,501.0,497.0,497.0,497.0,497.0,498.0,498.0,489.0,489.0,489.0,489.0,489.0,477.0,477.0,477.0,477.0,477.0,477.0,489.0,489.0,513.0,509.0,509.0,509.0,509.0,512.0,512.0,511.0,511.0,511.0,511.0,511.0,505.0,505.0,505.0,505.0,505.0,505.0,514.0,514.0,504.6222222222222,501.4888888888889,522.1111111111111,496.0,489.0,514.0
0,500.0,498.0,514.0,20.0,110.0,56.0,496.0,477.0,498.0,500.0,500.0,500.0,497.0,497.0,497.0,497.0,497.0,500.0,500.0,500.0,500.0,500.0,500.0,496.0,496.0,496.0,496.0,498.0,498.0,497.0,498.0,498.0,489.0,489.0,489.0,489.0,489.0,477.0,477.0,477.0,477.0,477.0,477.0,489.0,489.0,489.0,489.0,496.0,496.0,509.0,512.0,512.0,511.0,511.0,511.0,511.0,511.0,505.0,505.0,505.0,505.0,505.0,505.0,514.0,514.0,514.0,514.0,498.0,498.0,503.2,495.93333333333334,518.6444444444444,498.0,496.0,498.0
0,503.0,496.0,514.0,20.0,78.0,81.0,496.0,477.0,473.0,497.0,497.0,497.0,497.0,500.0,500.0,500.0,500.0,500.0,500.0,496.0,496.0,496.0,496.0,498.0,498.0,498.0,498.0,503.0,503.0,489.0,489.0,489.0,489.0,477.0,477.0,477.0,477.0,477.0,477.0,489.0,489.0,489.0,489.0,496.0,496.0,496.0,496.0,485.0,485.0,511.0,511.0,511.0,511.0,505.0,505.0,505.0,505.0,505.0,505.0,514.0,514.0,514.0,514.0,498.0,498.0,498.0,498.0,473.0,473.0,502.4222222222222,490.3777777777778,513.1333333333333,503.0,485.0,473.0
0,508.0,514.0,514.0,17.0,64.0,81.0,496.0,477.0,473.0,500.0,500.0,500.0,500.0,500.0,500.0,496.0,496.0,496.0,496.0,498.0,498.0,498.0,498.0,503.0,503.0,503.0,503.0,508.0,508.0,477.0,477.0,477.0,477.0,477.0,477.0,489.0,489.0,489.0,489.0,496.0,496.0,496.0,496.0,485.0,485.0,485.0,485.0,514.0,514.0,505.0,505.0,505.0,505.0,505.0,505.0,514.0,514.0,514.0,514.0,498.0,498.0,498.0,498.0,473.0,473.0,473.0,473.0,475.0,475.0,501.68888888888887,488.68888888888887,506.2,508.0,514.0,475.0
0,509.0,514.0,514.0,13.0,63.0,65.0,496.0,477.0,473.0,500.0,500.0,500.0,496.0,496.0,496.0,496.0,498.0,498.0,498.0,498.0,503.0,503.0,503.0,503.0,508.0,508.0,508.0,509.0,509.0,477.0,477.0,477.0,489.0,489.0,489.0,489.0,496.0,496.0,496.0,496.0,485.0,485.0,485.0,485.0,514.0,514.0,514.0,503.0,503.0,505.0,505.0,505.0,514.0,514.0,514.0,514.0,498.0,498.0,498.0,498.0,473.0,473.0,473.0,473.0,475.0,475.0,475.0,487.0,487.0,501.7111111111111,489.1111111111111,502.1777777777778,509.0,503.0,487.0
0,509.0,514.0,514.0,13.0,63.0,41.0,496.0,477.0,473.0,500.0,496.0,496.0,496.0,496.0,498.0,498.0,498.0,498.0,503.0,503.0,503.0,503.0,508.0,508.0,508.0,509.0,509.0,509.0,509.0,477.0,489.0,489.0,489.0,489.0,496.0,496.0,496.0,496.0,485.0,485.0,485.0,485.0,514.0,514.0,514.0,503.0,503.0,503.0,503.0,505.0,514.0,514.0,514.0,514.0,498.0,498.0,498.0,498.0,473.0,473.0,473.0,473.0,475.0,475.0,475.0,487.0,487.0,487.0,487.0,501.8666666666667,490.4888888888889,500.53333333333336,509.0,503.0,487.0
0,516.0,545.0,498.0,20.0,68.0,41.0,498.0,485.0,473.0,498.0,498.0,498.0,498.0,503.0,503.0,503.0,503.0,508.0,508.0,509.0,509.0,509.0,509.0,516.0,516.0,516.0,516.0,514.0,514.0,496.0,496.0,496.0,496.0,485.0,485.0,485.0,485.0,514.0,514.0,503.0,503.0,503.0,503.0,503.0,503.0,503.0,503.0,545.0,545.0,498.0,498.0,498.0,498.0,473.0,473.0,473.0,473.0,475.0,475.0,487.0,487.0,487.0,487.0,490.0,490.0,490.0,490.0,488.0,488.0,502.8666666666667,495.15555555555557,498.75555555555553,514.0,545.0,488.0
0,518.0,545.0,503.0,22.0,68.0,41.0,503.0,485.0,473.0,503.0,503.0,503.0,503.0,508.0,508.0,508.0,509.0,509.0,509.0,509.0,516.0,516.0,516.0,516.0,514.0,514.0,514.0,514.0,518.0,485.0,485.0,485.0,485.0,514.0,514.0,514.0,503.0,503.0,503.0,503.0,503.0,503.0,503.0,503.0,545.0,545.0,545.0,545.0,536.0,473.0,473.0,473.0,473.0,475.0,475.0,475.0,487.0,487.0,487.0,487.0,490.0,490.0,490.0,490.0,488.0,488.0,488.0,488.0,503.0,503.8,498.9555555555556,497.1777777777778,518.0,536.0,503.0
0,522.0,545.0,519.0,26.0,68.0,46.0,503.0,485.0,473.0,503.0,508.0,508.0,508.0,509.0,509.0,509.0,509.0,516.0,516.0,516.0,516.0,514.0,514.0,514.0,514.0,518.0,518.0,518.0,522.0,485.0,514.0,514.0,514.0,503.0,503.0,503.0,503.0,503.0,503.0,503.0,503.0,545.0,545.0,545.0,545.0,536.0,536.0,536.0,518.0,473.0,475.0,475.0,475.0,487.0,487.0,487.0,487.0,490.0,490.0,490.0,490.0,488.0,488.0,488.0,488.0,503.0,503.0,503.0,519.0,505.0888888888889,501.15555555555557,497.1333333333333,522.0,518.0,519.0
0,522.0,551.0,533.0,26.0,74.0,60.0,509.0,503.0,487.0,509.0,509.0,509.0,516.0,516.0,516.0,516.0,514.0,514.0,514.0,514.0,518.0,518.0,518.0,522.0,522.0,522.0,522.0,519.0,519.0,503.0,503.0,503.0,503.0,503.0,503.0,503.0,545.0,545.0,545.0,545.0,536.0,536.0,536.0,518.0,518.0,518.0,518.0,551.0,551.0,487.0,487.0,487.0,490.0,490.0,490.0,490.0,488.0,488.0,488.0,488.0,503.0,503.0,503.0,519.0,519.0,519.0,519.0,533.0,533.0,507.53333333333336,505.26666666666665,498.64444444444445,519.0,551.0,533.0
0,523.0,576.0,533.0,27.0,99.0,60.0,514.0,503.0,488.0,516.0,516.0,516.0,514.0,514.0,514.0,514.0,518.0,518.0,518.0,522.0,522.0,522.0,522.0,519.0,519.0,519.0,519.0,523.0,523.0,503.0,503.0,503.0,545.0,545.0,545.0,545.0,536.0,536.0,536.0,518.0,518.0,518.0,518.0,551.0,551.0,551.0,551.0,576.0,576.0,490.0,490.0,490.0,488.0,488.0,488.0,488.0,503.0,503.0,503.0,519.0,519.0,519.0,519.0,533.0,533.0,533.0,533.0,530.0,530.0,509.6,512.1555555555556,500.6,523.0,576.0,530.0
0,523.0,576.0,533.0,27.0,99.0,60.0,513.0,518.0,488.0,514.0,514.0,514.0,518.0,518.0,518.0,522.0,522.0,522.0,522.0,519.0,519.0,519.0,519.0,523.0,523.0,523.0,523.0,513.0,513.0,545.0,545.0,545.0,536.0,536.0,536.0,518.0,518.0,518.0,518.0,551.0,551.0,551.0,551.0,576.0,576.0,576.0,576.0,572.0,572.0,488.0,488.0,488.0,503.0,503.0,503.0,519.0,519.0,519.0,519.0,533.0,533.0,533.0,533.0,530.0,530.0,530.0,530.0,525.0,525.0,511.2,520.7777777777778,502.6,513.0,572.0,525.0
0,523.0,576.0,533.0,27.0,91.0,60.0,513.0,518.0,503.0,518.0,518.0,522.0,522.0,522.0,522.0,519.0,519.0,519.0,519.0,523.0,523.0,523.0,523.0,513.0,513.0,513.0,513.0,513.0,513.0,536.0,536.0,518.0,518.0,518.0,518.0,551.0,551.0,551.0,551.0,576.0,576.0,576.0,576.0,572.0,572.0,572.0,572.0,563.0,563.0,503.0,503.0,519.0,519.0,519.0,519.0,533.0,533.0,533.0,533.0,530.0,530.0,530.0,530.0,525.0,525.0,525.0,525.0,527.0,527.0,512.6222222222223,528.0222222222222,503.8666666666667,513.0,563.0,527.0
0,523.0,576.0,533.0,25.0,91.0,60.0,513.0,518.0,519.0,522.0,519.0,519.0,519.0,519.0,523.0,523.0,523.0,523.0,513.0,513.0,513.0,513.0,513.0,513.0,513.0,513.0,513.0,513.0,513.0,518.0,551.0,551.0,551.0,551.0,576.0,576.0,576.0,576.0,572.0,572.0,572.0,572.0,563.0,563.0,563.0,563.0,563.0,544.0,544.0,519.0,533.0,533.0,533.0,533.0,530.0,530.0,530.0,530.0,525.0,525.0,525.0,525.0,527.0,527.0,527.0,527.0,527.0,519.0,519.0,514.3333333333334,534.7777777777778,506.3777777777778,513.0,544.0,519.0
0,523.0,576.0,533.0,20.0,91.0,60.0,513.0,519.0,517.0,519.0,519.0,519.0,523.0,523.0,523.0,523.0,513.0,513.0,513.0,513.0,513.0,513.0,513.0,513.0,513.0,513.0,513.0,513.0,513.0,551.0,551.0,551.0,576.0,576.0,576.0,576.0,572.0,572.0,572.0,572.0,563.0,563.0,563.0,563.0,563.0,544.0,544.0,544.0,519.0,533.0,533.0,533.0,530.0,530.0,530.0,530.0,525.0,525.0,525.0,525.0,527.0,527.0,527.0,527.0,527.0,519.0,519.0,519.0,517.0,514.7777777777778,536.8444444444444,508.3777777777778,513.0,519.0,517.0
0,523.0,576.0,530.0,16.0,81.0,58.0,507.0,495.0,517.0,523.0,523.0,523.0,523.0,513.0,513.0,513.0,513.0,513.0,513.0,513.0,513.0,513.0,513.0,513.0,513.0,513.0,513.0,513.0,507.0,576.0,576.0,576.0,576.0,572.0,572.0,572.0,572.0,563.0,563.0,563.0,563.0,563.0,544.0,544.0,544.0,519.0,519.0,519.0,495.0,530.0,530.0,530.0,530.0,525.0,525.0,525.0,525.0,527.0,527.0,527.0,527.0,527.0,519.0,519.0,519.0,517.0,517.0,517.0,520.0,515.2,537.9333333333333,511.3333333333333,507.0,495.0,520.0
0,523.0,576.0,530.0,16.0,105.0,46.0,507.0,471.0,517.0,523.0,523.0,513.0,513.0,513.0,513.0,513.0,513.0,513.0,513.0,513.0,513.0,513.0,513.0,513.0,513.0,513.0,507.0,507.0,513.0,576.0,576.0,572.0,572.0,572.0,572.0,563.0,563.0,563.0,563.0,563.0,544.0,544.0,544.0,519.0,519.0,519.0,495.0,495.0,471.0,530.0,530.0,525.0,525.0,525.0,525.0,527.0,527.0,527.0,527.0,527.0,519.0,519.0,519.0,517.0,517.0,517.0,520.0,520.0,523.0,515.2888888888889,536.5555555555555,513.4,513.0,471.0,523.0
0,513.0,572.0,529.0,16.0,105.0,45.0,507.0,471.0,517.0,513.0,513.0,513.0,513.0,513.0,513.0,513.0,513.0,513.0,513.0,513.0,513.0,513.0,507.0,507.0,513.0,513.0,513.0,508.0,508.0,572.0,572.0,563.0,563.0,563.0,563.0,563.0,544.0,544.0,544.0,519.0,519.0,519.0,495.0,495.0,471.0,471.0,471.0,475.0,475.0,525.0,525.0,527.0,527.0,527.0,527.0,527.0,519.0,519.0,519.0,517.0,517.0,517.0,520.0,520.0,523.0,523.0,523.0,529.0,529.0,515.4222222222222,533.8888888888889,516.8666666666667,508.0,475.0,529.0
0,513.0,563.0,532.0,23.0,105.0,45.0,500.0,471.0,517.0,513.0,513.0,513.0,513.0,513.0,513.0,513.0,513.0,513.0,507.0,507.0,513.0,513.0,513.0,508.0,508.0,508.0,508.0,500.0,500.0,563.0,563.0,563.0,544.0,544.0,544.0,519.0,519.0,519.0,495.0,495.0,471.0,471.0,471.0,475.0,475.0,475.0,475.0,487.0,487.0,527.0,527.0,527.0,519.0,519.0,519.0,517.0,517.0,517.0,520.0,520.0,523.0,523.0,523.0,529.0,529.0,529.0,529.0,532.0,532.0,514.3555555555556,531.9333333333333,520.4666666666667,500.0,487.0,532.0
0,513.0,544.0,532.0,23.0,105.0,30.0,500.0,471.0,517.0,513.0,513.0,513.0,513.0,513.0,507.0,507.0,513.0,513.0,513.0,508.0,508.0,508.0,508.0,500.0,500.0,500.0,500.0,502.0,502.0,544.0,544.0,519.0,519.0,519.0,495.0,495.0,471.0,471.0,471.0,475.0,475.0,475.0,475.0,487.0,487.0,487.0,487.0,503.0,503.0,519.0,519.0,517.0,517.0,517.0,520.0,520.0,523.0,523.0,523.0,529.0,529.0,529.0,529.0,532.0,532.0,532.0,532.0,523.0,523.0,513.2,527.4888888888889,523.9777777777778,502.0,503.0,523.0
0,513.0,519.0,532.0,23.0,105.0,26.0,500.0,471.0,507.0,513.0,513.0,507.0,507.0,513.0,513.0,513.0,508.0,508.0,508.0,508.0,500.0,500.0,500.0,500.0,502.0,502.0,502.0,502.0,502.0,519.0,519.0,495.0,495.0,471.0,471.0,471.0,475.0,475.0,475.0,475.0,487.0,487.0,487.0,487.0,503.0,503.0,503.0,503.0,497.0,517.0,517.0,520.0,520.0,523.0,523.0,523.0,529.0,529.0,529.0,529.0,532.0,532.0,532.0,532.0,523.0,523.0,523.0,523.0,507.0,512.1333333333333,525.1555555555556,524.9555555555555,502.0,497.0,507.0
0,513.0,503.0,532.0,27.0,105.0,27.0,496.0,471.0,506.0,513.0,513.0,513.0,508.0,508.0,508.0,508.0,500.0,500.0,500.0,500.0,502.0,502.0,502.0,502.0,502.0,502.0,502.0,496.0,496.0,471.0,471.0,471.0,475.0,475.0,475.0,475.0,487.0,487.0,487.0,487.0,503.0,503.0,503.0,503.0,497.0,497.0,497.0,471.0,471.0,523.0,523.0,523.0,529.0,529.0,529.0,529.0,532.0,532.0,532.0,532.0,523.0,523.0,523.0,523.0,507.0,507.0,507.0,506.0,506.0,510.0888888888889,522.1333333333333,523.8444444444444,496.0,471.0,506.0
0,508.0,503.0,532.0,27.0,141.0,27.0,496.0,435.0,505.0,508.0,508.0,508.0,500.0,500.0,500.0,500.0,502.0,502.0,502.0,502.0,502.0,502.0,502.0,496.0,496.0,496.0,496.0,502.0,502.0,475.0,475.0,475.0,487.0,487.0,487.0,487.0,503.0,503.0,503.0,503.0,497.0,497.0,497.0,471.0,471.0,471.0,471.0,435.0,435.0,529.0,529.0,529.0,532.0,532.0,532.0,532.0,523.0,523.0,523.0,523.0,507.0,507.0,507.0,506.0,506.0,506.0,506.0,505.0,505.0,508.31111111111113,513.4222222222222,521.4,502.0,435.0,505.0
0,502.0,509.0,532.0,27.0,141.0,35.0,496.0,435.0,497.0,500.0,500.0,500.0,500.0,502.0,502.0,502.0,502.0,502.0,502.0,502.0,496.0,496.0,496.0,496.0,502.0,502.0,502.0,502.0,499.0,487.0,487.0,487.0,487.0,503.0,503.0,503.0,503.0,497.0,497.0,497.0,471.0,471.0,471.0,471.0,435.0,435.0,435.0,435.0,509.0,532.0,532.0,532.0,532.0,523.0,523.0,523.0,523.0,507.0,507.0,507.0,506.0,506.0,506.0,506.0,505.0,505.0,505.0,505.0,497.0,506.84444444444443,505.6666666666667,519.5555555555555,499.0,509.0,497.0
0,510.0,588.0,523.0,17.0,153.0,35.0,496.0,435.0,497.0,502.0,502.0,502.0,502.0,502.0,502.0,496.0,496.0,496.0,496.0,502.0,502.0,502.0,502.0,499.0,499.0,499.0,499.0,510.0,510.0,503.0,503.0,503.0,497.0,497.0,497.0,471.0,471.0,471.0,471.0,435.0,435.0,435.0,435.0,509.0,509.0,509.0,509.0,588.0,588.0,523.0,523.0,523.0,507.0,507.0,507.0,506.0,506.0,506.0,506.0,505.0,505.0,505.0,505.0,497.0,497.0,497.0,497.0,499.0,499.0,505.55555555555554,502.0888888888889,516.4222222222222,510.0,588.0,499.0
0,510.0,588.0,507.0,17.0,153.0,41.0,496.0,435.0,491.0,502.0,502.0,502.0,496.0,496.0,496.0,496.0,502.0,502.0,502.0,502.0,499.0,499.0,499.0,499.0,510.0,510.0,510.0,506.0,506.0,497.0,497.0,497.0,471.0,471.0,471.0,471.0,435.0,435.0,435.0,435.0,509.0,509.0,509.0,509.0,588.0,588.0,588.0,513.0,513.0,507.0,507.0,507.0,506.0,506.0,506.0,506.0,505.0,505.0,505.0,505.0,497.0,497.0,497.0,497.0,499.0,499.0,499.0,491.0,491.0,505.1777777777778,500.4222222222222,514.2,506.0,513.0,491.0
0,510.0,588.0,506.0,17.0,153.0,50.0,496.0,435.0,482.0,496.0,496.0,496.0,502.0,502.0,502.0,502.0,499.0,499.0,499.0,499.0,510.0,510.0,510.0,506.0,506.0,506.0,506.0,507.0,507.0,471.0,471.0,471.0,435.0,435.0,435.0,435.0,509.0,509.0,509.0,509.0,588.0,588.0,588.0,513.0,513.0,513.0,513.0,462.0,462.0,506.0,506.0,506.0,505.0,505.0,505.0,505.0,497.0,497.0,497.0,497.0,499.0,499.0,499.0,491.0,491.0,491.0,491.0,482.0,482.0,504.6,494.55555555555554,510.9555555555556,507.0,462.0,482.0
0,511.0,588.0,505.0,17.0,153.0,56.0,499.0,435.0,476.0,502.0,502.0,502.0,502.0,499.0,499.0,499.0,499.0,510.0,510.0,510.0,506.0,506.0,506.0,506.0,507.0,507.0,507.0,511.0,511.0,435.0,435.0,435.0,435.0,509.0,509.0,509.0,509.0,588.0,588.0,588.0,513.0,513.0,513.0,513.0,462.0,462.0,462.0,499.0,499.0,505.0,505.0,505.0,505.0,497.0,497.0,497.0,497.0,499.0,499.0,499.0,491.0,491.0,491.0,491.0,482.0,482.0,482.0,476.0,476.0,504.3777777777778,491.84444444444443,508.31111111111113,511.0,499.0,476.0
0,513.0,588.0,499.0,17.0,153.0,66.0,499.0,462.0,466.0,499.0,499.0,499.0,499.0,510.0,510.0,510.0,506.0,506.0,506.0,506.0,507.0,507.0,507.0,511.0,511.0,511.0,511.0,513.0,513.0,509.0,509.0,509.0,509.0,588.0,588.0,588.0,513.0,513.0,513.0,513.0,462.0,462.0,462.0,499.0,499.0,499.0,499.0,505.0,505.0,497.0,497.0,497.0,497.0,499.0,499.0,499.0,491.0,491.0,491.0,491.0,482.0,482.0,482.0,476.0,476.0,476.0,476.0,466.0,466.0,504.55555555555554,492.46666666666664,503.9555555555556,513.0,505.0,466.0
0,514.0,588.0,499.0,18.0,153.0,79.0,506.0,462.0,453.0,510.0,510.0,510.0,506.0,506.0,506.0,506.0,507.0,507.0,507.0,511.0,511.0,511.0,511.0,513.0,513.0,513.0,513.0,514.0,514.0,588.0,588.0,588.0,513.0,513.0,513.0,513.0,462.0,462.0,462.0,499.0,499.0,499.0,499.0,505.0,505.0,505.0,505.0,534.0,534.0,499.0,499.0,499.0,491.0,491.0,491.0,491.0,482.0,482.0,482.0,476.0,476.0,476.0,476.0,466.0,466.0,466.0,466.0,453.0,453.0,504.8222222222222,496.6,498.0444444444444,514.0,534.0,453.0
0,519.0,540.0,491.0,23.0,153.0,79.0,506.0,462.0,453.0,506.0,506.0,506.0,507.0,507.0,507.0,511.0,511.0,511.0,511.0,513.0,513.0,513.0,513.0,514.0,514.0,514.0,514.0,519.0,519.0,513.0,513.0,513.0,462.0,462.0,462.0,499.0,499.0,499.0,499.0,505.0,505.0,505.0,505.0,534.0,534.0,534.0,534.0,540.0,540.0,491.0,491.0,491.0,482.0,482.0,482.0,476.0,476.0,476.0,476.0,466.0,466.0,466.0,466.0,453.0,453.0,453.0,453.0,457.0,457.0,505.93333333333334,501.5777777777778,491.3333333333333,519.0,540.0,457.0
0,520.0,540.0,482.0,24.0,153.0,70.0,507.0,462.0,453.0,507.0,511.0,511.0,511.0,511.0,513.0,513.0,513.0,513.0,514.0,514.0,514.0,514.0,519.0,519.0,519.0,519.0,519.0,520.0,520.0,462.0,499.0,499.0,499.0,499.0,505.0,505.0,505.0,505.0,534.0,534.0,534.0,534.0,540.0,540.0,540.0,540.0,540.0,540.0,540.0,482.0,476.0,476.0,476.0,476.0,466.0,466.0,466.0,466.0,453.0,453.0,453.0,453.0,457.0,457.0,457.0,457.0,457.0,462.0,462.0,507.9555555555556,506.4,483.8222222222222,520.0,540.0,462.0
0,520.0,542.0,476.0,24.0,153.0,53.0,511.0,499.0,453.0,511.0,513.0,513.0,513.0,513.0,514.0,514.0,514.0,514.0,519.0,519.0,519.0,519.0,519.0,520.0,520.0,520.0,520.0,517.0,517.0,499.0,505.0,505.0,505.0,505.0,534.0,534.0,534.0,534.0,540.0,540.0,540.0,540.0,540.0,540.0,540.0,540.0,540.0,542.0,542.0,476.0,466.0,466.0,466.0,466.0,453.0,453.0,453.0,453.0,457.0,457.0,457.0,457.0,457.0,462.0,462.0,462.0,462.0,473.0,473.0,509.4222222222222,510.1777777777778,479.9555555555556,517.0,542.0,473.0
0,520.0,542.0,473.0,21.0,153.0,52.0,513.0,505.0,453.0,513.0,514.0,514.0,514.0,514.0,519.0,519.0,519.0,519.0,519.0,520.0,520.0,520.0,520.0,517.0,517.0,517.0,517.0,513.0,513.0,505.0,534.0,534.0,534.0,534.0,540.0,540.0,540.0,540.0,540.0,540.0,540.0,540.0,540.0,542.0,542.0,542.0,542.0,533.0,533.0,466.0,453.0,453.0,453.0,453.0,457.0,457.0,457.0,457.0,457.0,462.0,462.0,462.0,462.0,473.0,473.0,473.0,473.0,471.0,471.0,511.1111111111111,516.0888888888888,476.93333333333334,513.0,533.0,471.0
0,520.0,550.0,473.0,21.0,126.0,48.0,513.0,533.0,451.0,514.0,519.0,519.0,519.0,519.0,519.0,520.0,520.0,520.0,520.0,517.0,517.0,517.0,517.0,513.0,513.0,513.0,513.0,516.0,516.0,534.0,540.0,540.0,540.0,540.0,540.0,540.0,540.0,540.0,540.0,542.0,542.0,542.0,542.0,533.0,533.0,533.0,533.0,550.0,550.0,453.0,457.0,457.0,457.0,457.0,457.0,462.0,462.0,462.0,462.0,473.0,473.0,473.0,473.0,471.0,471.0,471.0,471.0,451.0,451.0,512.2222222222222,525.5555555555555,473.02222222222224,516.0,550.0,451.0
0,523.0,550.0,479.0,24.0,126.0,48.0,513.0,533.0,451.0,519.0,519.0,519.0,520.0,520.0,520.0,520.0,517.0,517.0,517.0,517.0,513.0,513.0,513.0,513.0,516.0,516.0,516.0,523.0,523.0,540.0,540.0,540.0,540.0,540.0,540.0,540.0,542.0,542.0,542.0,542.0,533.0,533.0,533.0,533.0,550.0,550.0,550.0,533.0,533.0,457.0,457.0,457.0,462.0,462.0,462.0,462.0,473.0,473.0,473.0,473.0,471.0,471.0,471.0,471.0,451.0,451.0,451.0,479.0,479.0,513.6666666666666,527.5333333333333,471.2,523.0,533.0,479.0
0,523.0,550.0,513.0,17.0,126.0,62.0,513.0,533.0,451.0,520.0,520.0,520.0,520.0,517.0,517.0,517.0,517.0,513.0,513.0,513.0,513.0,516.0,516.0,516.0,523.0,523.0,523.0,523.0,516.0,540.0,540.0,540.0,540.0,542.0,542.0,542.0,542.0,533.0,533.0,533.0,533.0,550.0,550.0,550.0,533.0,533.0,533.0,533.0,543.0,462.0,462.0,462.0,462.0,473.0,473.0,473.0,473.0,471.0,471.0,471.0,471.0,451.0,451.0,451.0,479.0,479.0,479.0,479.0,513.0,514.6222222222223,525.8444444444444,470.6666666666667,516.0,543.0,513.0
0,523.0,550.0,537.0,17.0,88.0,86.0,511.0,527.0,451.0,517.0,517.0,517.0,517.0,513.0,513.0,513.0,513.0,516.0,516.0,516.0,523.0,523.0,523.0,523.0,516.0,516.0,516.0,516.0,511.0,542.0,542.0,542.0,542.0,533.0,533.0,533.0,533.0,550.0,550.0,550.0,533.0,533.0,533.0,533.0,543.0,543.0,543.0,543.0,527.0,473.0,473.0,473.0,473.0,471.0,471.0,471.0,471.0,451.0,451.0,451.0,479.0,479.0,479.0,479.0,513.0,513.0,513.0,513.0,537.0,515.3111111111111,526.4888888888889,472.97777777777776,511.0,527.0,537.0
0,523.0,550.0,578.0,12.0,51.0,127.0,511.0,523.0,451.0,513.0,513.0,513.0,516.0,516.0,516.0,523.0,523.0,523.0,523.0,516.0,516.0,516.0,516.0,511.0,511.0,511.0,511.0,514.0,514.0,533.0,533.0,533.0,550.0,550.0,550.0,533.0,533.0,533.0,533.0,543.0,543.0,543.0,543.0,527.0,527.0,527.0,527.0,523.0,523.0,471.0,471.0,471.0,451.0,451.0,451.0,479.0,479.0,479.0,479.0,513.0,513.0,513.0,513.0,537.0,537.0,537.0,537.0,578.0,578.0,515.8222222222222,531.5777777777778,480.84444444444443,514.0,523.0,578.0
0,523.0,550.0,648.0,13.0,45.0,197.0,510.0,523.0,451.0,516.0,516.0,523.0,523.0,523.0,523.0,516.0,516.0,516.0,516.0,511.0,511.0,511.0,511.0,514.0,514.0,514.0,514.0,510.0,510.0,550.0,550.0,533.0,533.0,533.0,533.0,543.0,543.0,543.0,543.0,527.0,527.0,527.0,527.0,523.0,523.0,523.0,523.0,525.0,525.0,451.0,451.0,479.0,479.0,479.0,479.0,513.0,513.0,513.0,513.0,537.0,537.0,537.0,537.0,578.0,578.0,578.0,578.0,648.0,648.0,515.8666666666667,533.6666666666666,493.24444444444447,510.0,525.0,648.0
0,523.0,543.0,660.0,19.0,78.0,209.0,504.0,472.0,479.0,523.0,523.0,516.0,516.0,516.0,516.0,511.0,511.0,511.0,511.0,514.0,514.0,514.0,514.0,510.0,510.0,510.0,510.0,504.0,504.0,533.0,533.0,543.0,543.0,543.0,543.0,527.0,527.0,527.0,527.0,523.0,523.0,523.0,523.0,525.0,525.0,525.0,525.0,472.0,472.0,479.0,479.0,513.0,513.0,513.0,513.0,537.0,537.0,537.0,537.0,578.0,578.0,578.0,578.0,648.0,648.0,648.0,648.0,660.0,660.0,515.3111111111111,532.4444444444445,510.24444444444447,504.0,472.0,660.0
0,516.0,543.0,660.0,23.0,170.0,209.0,500.0,380.0,513.0,516.0,516.0,511.0,511.0,511.0,511.0,514.0,514.0,514.0,514.0,510.0,510.0,510.0,510.0,504.0,504.0,504.0,504.0,500.0,500.0,543.0,543.0,527.0,527.0,527.0,527.0,523.0,523.0,523.0,523.0,525.0,525.0,525.0,525.0,472.0,472.0,472.0,380.0,380.0,380.0,513.0,513.0,537.0,537.0,537.0,537.0,578.0,578.0,578.0,578.0,648.0,648.0,648.0,648.0,660.0,660.0,660.0,608.0,608.0,608.0,514.1333333333333,522.7111111111111,526.2444444444444,500.0,380.0,608.0
0,514.0,527.0,660.0,23.0,170.0,209.0,500.0,380.0,537.0,511.0,514.0,514.0,514.0,514.0,510.0,510.0,510.0,510.0,504.0,504.0,504.0,504.0,500.0,500.0,500.0,500.0,500.0,501.0,501.0,527.0,523.0,523.0,523.0,523.0,525.0,525.0,525.0,525.0,472.0,472.0,472.0,472.0,380.0,380.0,380.0,380.0,380.0,452.0,452.0,537.0,578.0,578.0,578.0,578.0,648.0,648.0,648.0,648.0,660.0,660.0,660.0,660.0,608.0,608.0,608.0,608.0,608.0,543.0,543.0,512.0444444444445,508.1333333333333,540.0222222222222,501.0,452.0,543.0
0,514.0,525.0,660.0,23.0,170.0,209.0,500.0,380.0,543.0,514.0,514.0,510.0,510.0,510.0,510.0,504.0,504.0,504.0,504.0,500.0,500.0,500.0,500.0,500.0,501.0,501.0,501.0,501.0,507.0,523.0,523.0,525.0,525.0,525.0,525.0,472.0,472.0,472.0,472.0,380.0,380.0,380.0,380.0,380.0,452.0,452.0,452.0,452.0,470.0,578.0,578.0,648.0,648.0,648.0,648.0,660.0,660.0,660.0,660.0,608.0,608.0,608.0,608.0,608.0,543.0,543.0,543.0,543.0,597.0,510.9111111111111,502.6666666666667,546.6222222222223,507.0,470.0,597.0
0,510.0,525.0,660.0,28.0,170.0,209.0,495.0,380.0,543.0,510.0,504.0,504.0,504.0,504.0,500.0,500.0,500.0,500.0,500.0,501.0,501.0,501.0,501.0,507.0,507.0,507.0,507.0,495.0,495.0,525.0,472.0,472.0,472.0,472.0,380.0,380.0,380.0,380.0,380.0,452.0,452.0,452.0,452.0,470.0,470.0,470.0,470.0,481.0,481.0,648.0,660.0,660.0,660.0,660.0,608.0,608.0,608.0,608.0,608.0,543.0,543.0,543.0,543.0,597.0,597.0,597.0,597.0,584.0,584.0,509.35555555555555,495.35555555555555,559.8666666666667,495.0,481.0,584.0
0,507.0,481.0,660.0,28.0,170.0,209.0,495.0,380.0,537.0,504.0,500.0,500.0,500.0,500.0,500.0,501.0,501.0,501.0,501.0,507.0,507.0,507.0,507.0,495.0,495.0,495.0,495.0,499.0,499.0,472.0,380.0,380.0,380.0,380.0,380.0,452.0,452.0,452.0,452.0,470.0,470.0,470.0,470.0,481.0,481.0,481.0,481.0,464.0,464.0,660.0,608.0,608.0,608.0,608.0,608.0,543.0,543.0,543.0,543.0,597.0,597.0,597.0,597.0,584.0,584.0,584.0,584.0,537.0,537.0,507.8666666666667,489.6,568.2666666666667,499.0,464.0,537.0
0,507.0,481.0,608.0,28.0,163.0,353.0,495.0,380.0,307.0,500.0,500.0,500.0,501.0,501.0,501.0,501.0,507.0,507.0,507.0,507.0,495.0,495.0,495.0,495.0,499.0,499.0,499.0,500.0,500.0,380.0,380.0,380.0,452.0,452.0,452.0,452.0,470.0,470.0,470.0,470.0,481.0,481.0,481.0,481.0,464.0,464.0,464.0,476.0,476.0,608.0,608.0,608.0,543.0,543.0,543.0,543.0,597.0,597.0,597.0,597.0,584.0,584.0,584.0,584.0,537.0,537.0,537.0,307.0,307.0,506.6222222222222,484.77777777777777,563.1555555555556,500.0,476.0,307.0
0,507.0,504.0,597.0,21.0,163.0,393.0,495.0,452.0,267.0,501.0,501.0,501.0,507.0,507.0,507.0,507.0,495.0,495.0,495.0,495.0,499.0,499.0,499.0,500.0,500.0,500.0,500.0,504.0,504.0,452.0,452.0,452.0,470.0,470.0,470.0,470.0,481.0,481.0,481.0,481.0,464.0,464.0,464.0,476.0,476.0,476.0,476.0,504.0,504.0,543.0,543.0,543.0,597.0,597.0,597.0,597.0,584.0,584.0,584.0,584.0,537.0,537.0,537.0,307.0,307.0,307.0,307.0,267.0,267.0,504.9111111111111,480.73333333333335,545.3333333333334,504.0,504.0,267.0
0,507.0,504.0,597.0,19.0,147.0,393.0,495.0,464.0,267.0,507.0,507.0,507.0,495.0,495.0,495.0,495.0,499.0,499.0,499.0,500.0,500.0,500.0,500.0,504.0,504.0,504.0,504.0,507.0,507.0,470.0,470.0,470.0,481.0,481.0,481.0,481.0,464.0,464.0,464.0,476.0,476.0,476.0,476.0,504.0,504.0,504.0,504.0,493.0,493.0,597.0,597.0,597.0,584.0,584.0,584.0,584.0,537.0,537.0,537.0,307.0,307.0,307.0,307.0,267.0,267.0,267.0,267.0,268.0,268.0,504.0888888888889,477.1333333333333,522.9777777777778,507.0,493.0,268.0
0,515.0,504.0,584.0,20.0,145.0,524.0,495.0,464.0,136.0,495.0,495.0,495.0,495.0,499.0,499.0,499.0,500.0,500.0,500.0,500.0,504.0,504.0,504.0,504.0,507.0,507.0,507.0,507.0,515.0,481.0,481.0,481.0,481.0,464.0,464.0,464.0,476.0,476.0,476.0,476.0,504.0,504.0,504.0,504.0,493.0,493.0,493.0,493.0,485.0,584.0,584.0,584.0,584.0,537.0,537.0,537.0,307.0,307.0,307.0,307.0,267.0,267.0,267.0,267.0,268.0,268.0,268.0,268.0,136.0,504.0,474.68888888888887,502.1111111111111,515.0,485.0,136.0
0,515.0,504.0,537.0,20.0,145.0,524.0,499.0,464.0,136.0,499.0,499.0,500.0,500.0,500.0,500.0,504.0,504.0,504.0,504.0,507.0,507.0,507.0,507.0,515.0,515.0,515.0,515.0,514.0,514.0,464.0,464.0,476.0,476.0,476.0,476.0,504.0,504.0,504.0,504.0,493.0,493.0,493.0,493.0,485.0,485.0,485.0,485.0,487.0,487.0,537.0,537.0,307.0,307.0,307.0,307.0,267.0,267.0,267.0,267.0,268.0,268.0,268.0,268.0,136.0,136.0,136.0,136.0,406.0,406.0,504.15555555555557,470.5111111111111,463.44444444444446,514.0,487.0,406.0
0,515.0,504.0,487.0,20.0,124.0,524.0,500.0,476.0,136.0,500.0,500.0,504.0,504.0,504.0,504.0,507.0,507.0,507.0,507.0,515.0,515.0,515.0,515.0,514.0,514.0,514.0,514.0,512.0,512.0,476.0,476.0,504.0,504.0,504.0,504.0,493.0,493.0,493.0,493.0,485.0,485.0,485.0,485.0,487.0,487.0,487.0,487.0,499.0,499.0,307.0,307.0,267.0,267.0,267.0,267.0,268.0,268.0,268.0,268.0,136.0,136.0,136.0,136.0,406.0,406.0,406.0,406.0,487.0,487.0,504.55555555555554,468.84444444444443,445.26666666666665,512.0,499.0,487.0
0,517.0,509.0,679.0,22.0,129.0,543.0,504.0,485.0,136.0,504.0,504.0,507.0,507.0,507.0,507.0,515.0,515.0,515.0,515.0,514.0,514.0,514.0,514.0,512.0,512.0,512.0,512.0,517.0,517.0,504.0,504.0,493.0,493.0,493.0,493.0,485.0,485.0,485.0,485.0,487.0,487.0,487.0,487.0,499.0,499.0,499.0,499.0,509.0,509.0,267.0,267.0,268.0,268.0,268.0,268.0,136.0,136.0,136.0,136.0,406.0,406.0,406.0,406.0,487.0,487.0,487.0,487.0,679.0,679.0,505.5777777777778,473.73333333333335,439.5777777777778,517.0,509.0,679.0
0,524.0,509.0,697.0,29.0,57.0,561.0,507.0,485.0,136.0,507.0,507.0,515.0,515.0,515.0,515.0,514.0,514.0,514.0,514.0,512.0,512.0,512.0,512.0,517.0,517.0,517.0,517.0,524.0,524.0,493.0,493.0,485.0,485.0,485.0,485.0,487.0,487.0,487.0,487.0,499.0,499.0,499.0,499.0,509.0,509.0,509.0,509.0,509.0,509.0,268.0,268.0,136.0,136.0,136.0,136.0,406.0,406.0,406.0,406.0,487.0,487.0,487.0,487.0,679.0,679.0,679.0,679.0,697.0,697.0,507.4,485.2,446.68888888888887,524.0,509.0,697.0
0,524.0,581.0,832.0,29.0,117.0,696.0,512.0,485.0,136.0,515.0,514.0,514.0,514.0,514.0,512.0,512.0,512.0,512.0,517.0,517.0,517.0,517.0,524.0,524.0,524.0,524.0,524.0,520.0,520.0,485.0,487.0,487.0,487.0,487.0,499.0,499.0,499.0,499.0,509.0,509.0,509.0,509.0,509.0,509.0,509.0,509.0,509.0,581.0,581.0,136.0,406.0,406.0,406.0,406.0,487.0,487.0,487.0,487.0,679.0,679.0,679.0,679.0,697.0,697.0,697.0,697.0,697.0,832.0,832.0,509.64444444444445,494.3333333333333,468.6,520.0,581.0,832.0
0,524.0,645.0,832.0,29.0,181.0,696.0,512.0,487.0,406.0,514.0,512.0,512.0,512.0,512.0,517.0,517.0,517.0,517.0,524.0,524.0,524.0,524.0,524.0,520.0,520.0,520.0,520.0,523.0,523.0,487.0,499.0,499.0,499.0,499.0,509.0,509.0,509.0,509.0,509.0,509.0,509.0,509.0,509.0,581.0,581.0,581.0,581.0,645.0,645.0,406.0,487.0,487.0,487.0,487.0,679.0,679.0,679.0,679.0,697.0,697.0,697.0,697.0,697.0,832.0,832.0,832.0,832.0,786.0,786.0,511.2,506.8,487.73333333333335,523.0,645.0,786.0
0,524.0,645.0,832.0,25.0,181.0,696.0,512.0,499.0,487.0,512.0,517.0,517.0,517.0,517.0,524.0,524.0,524.0,524.0,524.0,520.0,520.0,520.0,520.0,523.0,523.0,523.0,523.0,517.0,517.0,499.0,509.0,509.0,509.0,509.0,509.0,509.0,509.0,509.0,509.0,581.0,581.0,581.0,581.0,645.0,645.0,645.0,645.0,636.0,636.0,487.0,679.0,679.0,679.0,679.0,697.0,697.0,697.0,697.0,697.0,832.0,832.0,832.0,832.0,786.0,786.0,786.0,786.0,717.0,717.0,513.3333333333334,521.3555555555556,503.6666666666667,517.0,636.0,717.0
0,524.0,645.0,832.0,24.0,169.0,696.0,517.0,509.0,608.0,517.0,524.0,524.0,524.0,524.0,524.0,520.0,520.0,520.0,520.0,523.0,523.0,523.0,523.0,517.0,517.0,517.0,517.0,517.0,522.0,509.0,509.0,509.0,509.0,509.0,509.0,581.0,581.0,581.0,581.0,645.0,645.0,645.0,645.0,636.0,636.0,636.0,636.0,636.0,595.0,679.0,697.0,697.0,697.0,697.0,697.0,832.0,832.0,832.0,832.0,786.0,786.0,786.0,786.0,717.0,717.0,717.0,717.0,717.0,608.0,515.0,535.2,527.4666666666667,522.0,595.0,608.0
0,524.0,645.0,832.0,20.0,160.0,696.0,509.0,509.0,576.0,524.0,524.0,520.0,520.0,520.0,520.0,523.0,523.0,523.0,523.0,517.0,517.0,517.0,517.0,517.0,522.0,522.0,522.0,509.0,509.0,509.0,509.0,581.0,581.0,581.0,581.0,645.0,645.0,645.0,645.0,636.0,636.0,636.0,636.0,636.0,595.0,595.0,595.0,580.0,580.0,697.0,697.0,832.0,832.0,832.0,832.0,786.0,786.0,786.0,786.0,717.0,717.0,717.0,717.0,717.0,608.0,608.0,608.0,576.0,576.0,516.2,543.8666666666667,554.5777777777778,509.0,580.0,576.0
0,523.0,645.0,832.0,18.0,160.0,696.0,506.0,553.0,541.0,520.0,520.0,523.0,523.0,523.0,523.0,517.0,517.0,517.0,517.0,517.0,522.0,522.0,522.0,509.0,509.0,509.0,509.0,506.0,506.0,581.0,581.0,645.0,645.0,645.0,645.0,636.0,636.0,636.0,636.0,636.0,595.0,595.0,595.0,580.0,580.0,580.0,580.0,553.0,553.0,832.0,832.0,786.0,786.0,786.0,786.0,717.0,717.0,717.0,717.0,717.0,608.0,608.0,608.0,576.0,576.0,576.0,576.0,541.0,541.0,516.3777777777777,549.9111111111112,580.4444444444445,506.0,553.0,541.0
0,523.0,645.0,786.0,18.0,160.0,696.0,506.0,511.0,410.0,523.0,523.0,517.0,517.0,517.0,517.0,517.0,522.0,522.0,522.0,509.0,509.0,509.0,509.0,506.0,506.0,506.0,506.0,510.0,510.0,645.0,645.0,636.0,636.0,636.0,636.0,636.0,595.0,595.0,595.0,580.0,580.0,580.0,580.0,553.0,553.0,553.0,553.0,511.0,511.0,786.0,786.0,717.0,717.0,717.0,717.0,717.0,608.0,608.0,608.0,576.0,576.0,576.0,576.0,541.0,541.0,541.0,541.0,410.0,410.0,516.0222222222222,554.6666666666666,607.6666666666666,510.0,511.0,410.0
0,522.0,636.0,717.0,24.0,167.0,577.0,500.0,478.0,255.0,517.0,517.0,522.0,522.0,522.0,509.0,509.0,509.0,509.0,506.0,506.0,506.0,506.0,506.0,510.0,510.0,510.0,510.0,500.0,500.0,636.0,636.0,595.0,595.0,595.0,580.0,580.0,580.0,580.0,553.0,553.0,553.0,553.0,553.0,511.0,511.0,511.0,511.0,478.0,478.0,717.0,717.0,608.0,608.0,608.0,576.0,576.0,576.0,576.0,541.0,541.0,541.0,541.0,541.0,410.0,410.0,410.0,410.0,255.0,255.0,515.0888888888888,555.9555555555555,613.2222222222222,500.0,478.0,255.0
0,522.0,595.0,608.0,24.0,194.0,807.0,500.0,451.0,25.0,522.0,509.0,509.0,509.0,509.0,506.0,506.0,506.0,506.0,506.0,510.0,510.0,510.0,510.0,500.0,500.0,500.0,500.0,502.0,502.0,595.0,580.0,580.0,580.0,580.0,553.0,553.0,553.0,553.0,553.0,511.0,511.0,511.0,511.0,478.0,478.0,478.0,478.0,451.0,451.0,608.0,576.0,576.0,576.0,576.0,541.0,541.0,541.0,541.0,541.0,410.0,410.0,410.0,410.0,255.0,255.0,255.0,255.0,25.0,25.0,514.0666666666667,553.1555555555556,584.1777777777778,502.0,451.0,25.0
0,510.0,580.0,576.0,24.0,204.0,807.0,500.0,441.0,25.0,509.0,506.0,506.0,506.0,506.0,506.0,510.0,510.0,510.0,510.0,500.0,500.0,500.0,500.0,502.0,502.0,502.0,502.0,506.0,506.0,580.0,553.0,553.0,553.0,553.0,553.0,511.0,511.0,511.0,511.0,478.0,478.0,478.0,478.0,451.0,451.0,451.0,451.0,441.0,441.0,576.0,541.0,541.0,541.0,541.0,541.0,410.0,410.0,410.0,410.0,255.0,255.0,255.0,255.0,25.0,25.0,25.0,25.0,288.0,288.0,513.0222222222222,547.7777777777778,542.0,506.0,441.0,288.0
0,510.0,553.0,541.0,25.0,218.0,807.0,499.0,427.0,25.0,506.0,506.0,506.0,510.0,510.0,510.0,510.0,500.0,500.0,500.0,500.0,502.0,502.0,502.0,502.0,506.0,506.0,506.0,506.0,499.0,553.0,553.0,553.0,511.0,511.0,511.0,511.0,478.0,478.0,478.0,478.0,451.0,451.0,451.0,451.0,441.0,441.0,441.0,441.0,427.0,541.0,541.0,541.0,410.0,410.0,410.0,410.0,255.0,255.0,255.0,255.0,25.0,25.0,25.0,25.0,288.0,288.0,288.0,288.0,404.0,511.8222222222222,542.9333333333333,517.7111111111111,499.0,427.0,404.0
0,510.0,511.0,602.0,24.0,218.0,807.0,499.0,427.0,25.0,510.0,510.0,500.0,500.0,500.0,500.0,502.0,502.0,502.0,502.0,506.0,506.0,506.0,506.0,499.0,499.0,499.0,499.0,504.0,504.0,511.0,511.0,478.0,478.0,478.0,478.0,451.0,451.0,451.0,451.0,441.0,441.0,441.0,441.0,427.0,427.0,427.0,427.0,435.0,435.0,410.0,410.0,255.0,255.0,255.0,255.0,25.0,25.0,25.0,25.0,288.0,288.0,288.0,288.0,404.0,404.0,404.0,404.0,602.0,602.0,509.44444444444446,530.9777777777778,487.9555555555556,504.0,435.0,602.0
0,506.0,478.0,715.0,24.0,237.0,761.0,499.0,408.0,25.0,500.0,500.0,502.0,502.0,502.0,502.0,506.0,506.0,506.0,506.0,499.0,499.0,499.0,499.0,504.0,504.0,504.0,504.0,502.0,502.0,478.0,478.0,451.0,451.0,451.0,451.0,441.0,441.0,441.0,441.0,427.0,427.0,427.0,427.0,435.0,435.0,435.0,435.0,408.0,408.0,255.0,255.0,25.0,25.0,25.0,25.0,288.0,288.0,288.0,288.0,404.0,404.0,404.0,404.0,602.0,602.0,602.0,602.0,715.0,715.0,507.8,513.9555555555555,474.5777777777778,502.0,408.0,715.0
0,506.0,451.0,754.0,24.0,228.0,729.0,498.0,408.0,25.0,502.0,502.0,506.0,506.0,506.0,506.0,499.0,499.0,499.0,499.0,504.0,504.0,504.0,504.0,502.0,502.0,502.0,502.0,498.0,498.0,451.0,451.0,441.0,441.0,441.0,441.0,427.0,427.0,427.0,427.0,435.0,435.0,435.0,435.0,408.0,408.0,408.0,408.0,422.0,422.0,25.0,25.0,288.0,288.0,288.0,288.0,404.0,404.0,404.0,404.0,602.0,602.0,602.0,602.0,715.0,715.0,715.0,715.0,754.0,754.0,506.02222222222224,493.9111111111111,473.06666666666666,498.0,422.0,754.0
0,506.0,451.0,766.0,24.0,187.0,741.0,498.0,408.0,288.0,506.0,506.0,499.0,499.0,499.0,499.0,504.0,504.0,504.0,504.0,502.0,502.0,502.0,502.0,498.0,498.0,498.0,498.0,500.0,500.0,441.0,441.0,427.0,427.0,427.0,427.0,435.0,435.0,435.0,435.0,408.0,408.0,408.0,408.0,422.0,422.0,422.0,422.0,451.0,451.0,288.0,288.0,404.0,404.0,404.0,404.0,602.0,602.0,602.0,602.0,715.0,715.0,715.0,715.0,754.0,754.0,754.0,754.0,766.0,766.0,504.31111111111113,477.0888888888889,479.31111111111113,500.0,451.0,766.0
0,505.0,489.0,766.0,12.0,172.0,741.0,498.0,408.0,404.0,499.0,499.0,499.0,504.0,504.0,504.0,504.0,502.0,502.0,502.0,502.0,498.0,498.0,498.0,498.0,500.0,500.0,500.0,505.0,505.0,427.0,427.0,427.0,435.0,435.0,435.0,435.0,408.0,408.0,408.0,408.0,422.0,422.0,422.0,422.0,451.0,451.0,451.0,489.0,489.0,404.0,404.0,404.0,602.0,602.0,602.0,602.0,715.0,715.0,715.0,715.0,754.0,754.0,754.0,754.0,766.0,766.0,766.0,756.0,756.0,503.35555555555555,469.5111111111111,490.1111111111111,505.0,489.0,756.0
0,505.0,513.0,766.0,12.0,145.0,741.0,498.0,408.0,602.0,504.0,504.0,504.0,502.0,502.0,502.0,502.0,498.0,498.0,498.0,498.0,500.0,500.0,500.0,505.0,505.0,505.0,505.0,505.0,505.0,435.0,435.0,435.0,408.0,408.0,408.0,408.0,422.0,422.0,422.0,422.0,451.0,451.0,451.0,489.0,489.0,489.0,489.0,513.0,513.0,602.0,602.0,602.0,715.0,715.0,715.0,715.0,754.0,754.0,754.0,754.0,766.0,766.0,766.0,756.0,756.0,756.0,756.0,673.0,673.0,503.06666666666666,463.0888888888889,503.2,505.0,513.0,673.0
0,512.0,513.0,766.0,14.0,145.0,741.0,498.0,408.0,569.0,502.0,502.0,502.0,502.0,498.0,498.0,498.0,498.0,500.0,500.0,500.0,505.0,505.0,505.0,505.0,505.0,505.0,505.0,505.0,512.0,408.0,408.0,408.0,408.0,422.0,422.0,422.0,422.0,451.0,451.0,451.0,489.0,489.0,489.0,489.0,513.0,513.0,513.0,513.0,509.0,715.0,715.0,715.0,715.0,754.0,754.0,754.0,754.0,766.0,766.0,766.0,756.0,756.0,756.0,756.0,673.0,673.0,673.0,673.0,569.0,503.15555555555557,460.3333333333333,509.68888888888887,512.0,509.0,569.0
0,514.0,522.0,766.0,16.0,114.0,741.0,498.0,422.0,516.0,498.0,498.0,498.0,498.0,500.0,500.0,500.0,505.0,505.0,505.0,505.0,505.0,505.0,505.0,505.0,512.0,512.0,512.0,514.0,514.0,422.0,422.0,422.0,422.0,451.0,451.0,451.0,489.0,489.0,489.0,489.0,513.0,513.0,513.0,513.0,509.0,509.0,509.0,522.0,522.0,754.0,754.0,754.0,754.0,766.0,766.0,766.0,756.0,756.0,756.0,756.0,673.0,673.0,673.0,673.0,569.0,569.0,569.0,516.0,516.0,503.5111111111111,459.8,518.5555555555555,514.0,522.0,516.0
0,519.0,525.0,766.0,21.0,117.0,741.0,500.0,451.0,479.0,500.0,500.0,500.0,505.0,505.0,505.0,505.0,505.0,505.0,505.0,505.0,512.0,512.0,512.0,514.0,514.0,514.0,514.0,519.0,519.0,451.0,451.0,451.0,489.0,489.0,489.0,489.0,513.0,513.0,513.0,513.0,509.0,509.0,509.0,522.0,522.0,522.0,522.0,525.0,525.0,766.0,766.0,766.0,756.0,756.0,756.0,756.0,673.0,673.0,673.0,673.0,569.0,569.0,569.0,516.0,516.0,516.0,516.0,479.0,479.0,504.75555555555553,463.1111111111111,536.6666666666666,519.0,525.0,479.0
0,519.0,540.0,756.0,21.0,132.0,741.0,505.0,489.0,402.0,505.0,505.0,505.0,505.0,505.0,505.0,505.0,505.0,512.0,512.0,512.0,514.0,514.0,514.0,514.0,519.0,519.0,519.0,519.0,518.0,489.0,489.0,489.0,489.0,513.0,513.0,513.0,513.0,509.0,509.0,509.0,522.0,522.0,522.0,522.0,525.0,525.0,525.0,525.0,540.0,756.0,756.0,756.0,756.0,673.0,673.0,673.0,673.0,569.0,569.0,569.0,516.0,516.0,516.0,516.0,479.0,479.0,479.0,479.0,402.0,505.9111111111111,467.77777777777777,560.1111111111111,518.0,540.0,402.0
0,520.0,571.0,673.0,22.0,163.0,478.0,505.0,509.0,351.0,505.0,505.0,505.0,512.0,512.0,512.0,514.0,514.0,514.0,514.0,519.0,519.0,519.0,519.0,518.0,518.0,518.0,518.0,520.0,520.0,513.0,513.0,513.0,509.0,509.0,509.0,522.0,522.0,522.0,522.0,525.0,525.0,525.0,525.0,540.0,540.0,540.0,540.0,571.0,571.0,673.0,673.0,673.0,569.0,569.0,569.0,516.0,516.0,516.0,516.0,479.0,479.0,479.0,479.0,402.0,402.0,402.0,402.0,351.0,351.0,507.5111111111111,479.7111111111111,582.2,520.0,571.0,351.0
0,520.0,596.0,569.0,22.0,188.0,419.0,512.0,509.0,347.0,512.0,512.0,514.0,514.0,514.0,514.0,519.0,519.0,519.0,519.0,518.0,518.0,518.0,518.0,520.0,520.0,520.0,520.0,518.0,518.0,509.0,509.0,522.0,522.0,522.0,522.0,525.0,525.0,525.0,525.0,540.0,540.0,540.0,540.0,571.0,571.0,571.0,571.0,596.0,596.0,569.0,569.0,516.0,516.0,516.0,516.0,479.0,479.0,479.0,479.0,402.0,402.0,402.0,402.0,351.0,351.0,351.0,351.0,347.0,347.0,509.1333333333333,493.31111111111113,579.8888888888889,518.0,596.0,347.0
0,520.0,596.0,516.0,22.0,188.0,419.0,514.0,522.0,347.0,514.0,514.0,519.0,519.0,519.0,519.0,518.0,518.0,518.0,518.0,520.0,520.0,520.0,520.0,518.0,518.0,518.0,518.0,518.0,518.0,522.0,522.0,525.0,525.0,525.0,525.0,540.0,540.0,540.0,540.0,571.0,571.0,571.0,571.0,596.0,596.0,596.0,596.0,586.0,586.0,516.0,516.0,479.0,479.0,479.0,479.0,402.0,402.0,402.0,402.0,351.0,351.0,351.0,351.0,347.0,347.0,347.0,347.0,348.0,348.0,510.4888888888889,507.35555555555555,561.6666666666666,518.0,586.0,348.0
0,520.0,596.0,479.0,22.0,188.0,419.0,516.0,525.0,347.0,519.0,519.0,518.0,518.0,518.0,518.0,520.0,520.0,520.0,520.0,518.0,518.0,518.0,518.0,518.0,518.0,518.0,518.0,516.0,516.0,525.0,525.0,540.0,540.0,540.0,540.0,571.0,571.0,571.0,571.0,596.0,596.0,596.0,596.0,586.0,586.0,586.0,586.0,548.0,548.0,479.0,479.0,402.0,402.0,402.0,402.0,351.0,351.0,351.0,351.0,347.0,347.0,347.0,347.0,348.0,348.0,348.0,348.0,409.0,409.0,511.77777777777777,520.8888888888889,534.2666666666667,516.0,548.0,409.0
0,520.0,596.0,409.0,22.0,174.0,419.0,514.0,530.0,347.0,518.0,518.0,518.0,520.0,520.0,520.0,520.0,518.0,518.0,518.0,518.0,518.0,518.0,518.0,518.0,516.0,516.0,516.0,514.0,514.0,540.0,540.0,540.0,571.0,571.0,571.0,571.0,596.0,596.0,596.0,596.0,586.0,586.0,586.0,586.0,548.0,548.0,548.0,530.0,530.0,402.0,402.0,402.0,351.0,351.0,351.0,351.0,347.0,347.0,347.0,347.0,348.0,348.0,348.0,348.0,409.0,409.0,409.0,382.0,382.0,512.8,528.8,510.93333333333334,514.0,530.0,382.0
0,520.0,596.0,484.0,20.0,145.0,419.0,514.0,507.0,347.0,520.0,520.0,520.0,518.0,518.0,518.0,518.0,518.0,518.0,518.0,518.0,516.0,516.0,516.0,514.0,514.0,514.0,514.0,515.0,515.0,571.0,571.0,571.0,596.0,596.0,596.0,596.0,586.0,586.0,586.0,586.0,548.0,548.0,548.0,530.0,530.0,530.0,530.0,507.0,507.0,351.0,351.0,351.0,347.0,347.0,347.0,347.0,348.0,348.0,348.0,348.0,409.0,409.0,409.0,382.0,382.0,382.0,382.0,484.0,484.0,514.1777777777778,536.0888888888888,481.8666666666667,515.0,507.0,484.0
0,518.0,596.0,694.0,15.0,115.0,409.0,514.0,481.0,347.0,518.0,518.0,518.0,518.0,518.0,518.0,518.0,516.0,516.0,516.0,514.0,514.0,514.0,514.0,515.0,515.0,515.0,515.0,515.0,515.0,596.0,596.0,596.0,586.0,586.0,586.0,586.0,548.0,548.0,548.0,530.0,530.0,530.0,530.0,507.0,507.0,507.0,507.0,481.0,481.0,347.0,347.0,347.0,348.0,348.0,348.0,348.0,409.0,409.0,409.0,382.0,382.0,382.0,382.0,484.0,484.0,484.0,484.0,694.0,694.0,515.1777777777778,537.3777777777777,466.8,515.0,481.0,694.0
0,518.0,586.0,778.0,15.0,133.0,431.0,510.0,463.0,348.0,518.0,518.0,518.0,516.0,516.0,516.0,514.0,514.0,514.0,514.0,515.0,515.0,515.0,515.0,515.0,515.0,515.0,515.0,510.0,510.0,586.0,586.0,586.0,548.0,548.0,548.0,530.0,530.0,530.0,530.0,507.0,507.0,507.0,507.0,481.0,481.0,481.0,481.0,463.0,463.0,348.0,348.0,348.0,409.0,409.0,409.0,382.0,382.0,382.0,382.0,484.0,484.0,484.0,484.0,694.0,694.0,694.0,694.0,778.0,778.0,515.8444444444444,534.2666666666667,470.55555555555554,510.0,463.0,778.0
0,518.0,586.0,778.0,12.0,133.0,431.0,508.0,463.0,348.0,518.0,516.0,516.0,516.0,514.0,514.0,514.0,514.0,515.0,515.0,515.0,515.0,515.0,515.0,515.0,515.0,510.0,510.0,510.0,508.0,586.0,548.0,548.0,548.0,530.0,530.0,530.0,530.0,507.0,507.0,507.0,507.0,481.0,481.0,481.0,481.0,463.0,463.0,463.0,520.0,348.0,409.0,409.0,409.0,382.0,382.0,382.0,382.0,484.0,484.0,484.0,484.0,694.0,694.0,694.0,694.0,778.0,778.0,778.0,731.0,515.8666666666667,533.4,476.4888888888889,508.0,520.0,731.0
0,515.0,530.0,778.0,16.0,133.0,431.0,504.0,463.0,382.0,514.0,514.0,514.0,515.0,515.0,515.0,515.0,515.0,515.0,515.0,515.0,510.0,510.0,510.0,508.0,508.0,508.0,508.0,504.0,504.0,530.0,530.0,530.0,507.0,507.0,507.0,507.0,481.0,481.0,481.0,481.0,463.0,463.0,463.0,520.0,520.0,520.0,520.0,527.0,527.0,382.0,382.0,382.0,484.0,484.0,484.0,484.0,694.0,694.0,694.0,694.0,778.0,778.0,778.0,731.0,731.0,731.0,731.0,631.0,631.0,515.1111111111111,534.0666666666667,493.5777777777778,504.0,527.0,631.0
0,515.0,527.0,778.0,16.0,133.0,431.0,504.0,463.0,484.0,515.0,515.0,515.0,515.0,515.0,515.0,515.0,510.0,510.0,510.0,508.0,508.0,508.0,508.0,504.0,504.0,504.0,504.0,504.0,504.0,507.0,507.0,507.0,481.0,481.0,481.0,481.0,463.0,463.0,463.0,520.0,520.0,520.0,520.0,527.0,527.0,527.0,527.0,517.0,517.0,484.0,484.0,484.0,694.0,694.0,694.0,694.0,778.0,778.0,778.0,731.0,731.0,731.0,731.0,631.0,631.0,631.0,631.0,560.0,560.0,513.8888888888889,533.8666666666667,503.1111111111111,504.0,517.0,560.0
0,515.0,527.0,778.0,16.0,133.0,431.0,504.0,463.0,512.0,515.0,515.0,515.0,510.0,510.0,510.0,508.0,508.0,508.0,508.0,504.0,504.0,504.0,504.0,504.0,504.0,504.0,504.0,508.0,508.0,481.0,481.0,481.0,463.0,463.0,463.0,520.0,520.0,520.0,520.0,527.0,527.0,527.0,527.0,517.0,517.0,517.0,517.0,511.0,511.0,694.0,694.0,694.0,778.0,778.0,778.0,731.0,731.0,731.0,731.0,631.0,631.0,631.0,631.0,560.0,560.0,560.0,560.0,512.0,512.0,512.8,531.8888888888889,513.3111111111111,508.0,511.0,512.0
0,510.0,527.0,778.0,21.0,133.0,431.0,499.0,463.0,491.0,510.0,510.0,508.0,508.0,508.0,508.0,504.0,504.0,504.0,504.0,504.0,504.0,504.0,504.0,508.0,508.0,508.0,508.0,499.0,499.0,463.0,463.0,520.0,520.0,520.0,520.0,527.0,527.0,527.0,527.0,517.0,517.0,517.0,517.0,511.0,511.0,511.0,511.0,486.0,486.0,778.0,778.0,731.0,731.0,731.0,731.0,631.0,631.0,631.0,631.0,560.0,560.0,560.0,560.0,512.0,512.0,512.0,512.0,491.0,491.0,511.3777777777778,526.1333333333333,525.5555555555555,499.0,486.0,491.0
0,508.0,527.0,731.0,22.0,133.0,431.0,496.0,481.0,491.0,508.0,508.0,504.0,504.0,504.0,504.0,504.0,504.0,504.0,504.0,508.0,508.0,508.0,508.0,499.0,499.0,499.0,499.0,496.0,496.0,520.0,520.0,527.0,527.0,527.0,527.0,517.0,517.0,517.0,517.0,511.0,511.0,511.0,511.0,486.0,486.0,486.0,486.0,481.0,481.0,731.0,731.0,631.0,631.0,631.0,631.0,560.0,560.0,560.0,560.0,512.0,512.0,512.0,512.0,491.0,491.0,491.0,491.0,491.0,491.0,509.5111111111111,516.6888888888889,538.2666666666667,496.0,481.0,491.0
0,508.0,527.0,631.0,22.0,147.0,430.0,496.0,439.0,491.0,504.0,504.0,504.0,504.0,504.0,504.0,508.0,508.0,508.0,508.0,499.0,499.0,499.0,499.0,496.0,496.0,496.0,496.0,497.0,497.0,527.0,527.0,517.0,517.0,517.0,517.0,511.0,511.0,511.0,511.0,486.0,486.0,486.0,486.0,481.0,481.0,481.0,481.0,439.0,439.0,631.0,631.0,560.0,560.0,560.0,560.0,512.0,512.0,512.0,512.0,491.0,491.0,491.0,491.0,491.0,491.0,491.0,491.0,513.0,513.0,507.6,505.26666666666665,551.9777777777778,497.0,439.0,513.0
0,508.0,517.0,560.0,19.0,91.0,396.0,496.0,439.0,481.0,504.0,504.0,508.0,508.0,508.0,508.0,499.0,499.0,499.0,499.0,496.0,496.0,496.0,496.0,497.0,497.0,497.0,497.0,496.0,496.0,517.0,517.0,511.0,511.0,511.0,511.0,486.0,486.0,486.0,486.0,481.0,481.0,481.0,481.0,439.0,439.0,439.0,439.0,449.0,449.0,560.0,560.0,512.0,512.0,512.0,512.0,491.0,491.0,491.0,491.0,491.0,491.0,491.0,491.0,513.0,513.0,513.0,513.0,481.0,481.0,505.8222222222222,495.1777777777778,561.1555555555556,496.0,449.0,481.0
0,508.0,511.0,513.0,19.0,88.0,334.0,496.0,439.0,444.0,508.0,508.0,499.0,499.0,499.0,499.0,496.0,496.0,496.0,496.0,497.0,497.0,497.0,497.0,496.0,496.0,496.0,496.0,501.0,501.0,511.0,511.0,486.0,486.0,486.0,486.0,481.0,481.0,481.0,481.0,439.0,439.0,439.0,439.0,449.0,449.0,449.0,449.0,470.0,470.0,512.0,512.0,491.0,491.0,491.0,491.0,491.0,491.0,491.0,491.0,513.0,513.0,513.0,513.0,481.0,481.0,481.0,481.0,444.0,444.0,504.44444444444446,488.9111111111111,568.3111111111111,501.0,470.0,444.0
0,504.0,493.0,513.0,19.0,88.0,356.0,496.0,439.0,422.0,499.0,499.0,496.0,496.0,496.0,496.0,497.0,497.0,497.0,497.0,496.0,496.0,496.0,496.0,501.0,501.0,501.0,501.0,504.0,504.0,486.0,486.0,481.0,481.0,481.0,481.0,439.0,439.0,439.0,439.0,449.0,449.0,449.0,449.0,470.0,470.0,470.0,470.0,493.0,493.0,491.0,491.0,491.0,491.0,491.0,491.0,513.0,513.0,513.0,513.0,481.0,481.0,481.0,481.0,444.0,444.0,444.0,444.0,422.0,422.0,503.3333333333333,486.64444444444445,563.7777777777778,504.0,493.0,422.0
0,506.0,497.0,513.0,14.0,88.0,375.0,496.0,439.0,403.0,496.0,496.0,497.0,497.0,497.0,497.0,496.0,496.0,496.0,496.0,501.0,501.0,501.0,501.0,504.0,504.0,504.0,504.0,506.0,506.0,481.0,481.0,439.0,439.0,439.0,439.0,449.0,449.0,449.0,449.0,470.0,470.0,470.0,470.0,493.0,493.0,493.0,493.0,497.0,497.0,491.0,491.0,513.0,513.0,513.0,513.0,481.0,481.0,481.0,481.0,444.0,444.0,444.0,444.0,422.0,422.0,422.0,422.0,403.0,403.0,502.44444444444446,487.8888888888889,538.7555555555556,506.0,497.0,403.0
0,516.0,501.0,513.0,20.0,88.0,328.0,496.0,439.0,403.0,497.0,497.0,497.0,496.0,496.0,496.0,496.0,501.0,501.0,501.0,501.0,504.0,504.0,504.0,504.0,506.0,506.0,506.0,516.0,516.0,439.0,439.0,439.0,449.0,449.0,449.0,449.0,470.0,470.0,470.0,470.0,493.0,493.0,493.0,493.0,497.0,497.0,497.0,501.0,501.0,513.0,513.0,513.0,481.0,481.0,481.0,481.0,444.0,444.0,444.0,444.0,422.0,422.0,422.0,422.0,403.0,403.0,403.0,412.0,412.0,502.6222222222222,490.3333333333333,514.1555555555556,516.0,501.0,412.0
0,516.0,501.0,481.0,20.0,88.0,331.0,496.0,449.0,400.0,496.0,496.0,496.0,496.0,501.0,501.0,501.0,501.0,504.0,504.0,504.0,504.0,506.0,506.0,506.0,516.0,516.0,516.0,515.0,515.0,449.0,449.0,449.0,449.0,470.0,470.0,470.0,470.0,493.0,493.0,493.0,493.0,497.0,497.0,497.0,501.0,501.0,501.0,499.0,499.0,481.0,481.0,481.0,481.0,444.0,444.0,444.0,444.0,422.0,422.0,422.0,422.0,403.0,403.0,403.0,412.0,412.0,412.0,400.0,400.0,503.1111111111111,488.97777777777776,492.35555555555555,515.0,499.0,400.0
0,519.0,558.0,481.0,23.0,119.0,231.0,496.0,449.0,400.0,496.0,501.0,501.0,501.0,501.0,504.0,504.0,504.0,504.0,506.0,506.0,506.0,516.0,516.0,516.0,515.0,515.0,515.0,519.0,519.0,449.0,470.0,470.0,470.0,470.0,493.0,493.0,493.0,493.0,497.0,497.0,497.0,501.0,501.0,501.0,499.0,499.0,499.0,558.0,558.0,481.0,444.0,444.0,444.0,444.0,422.0,422.0,422.0,422.0,403.0,403.0,403.0,412.0,412.0,412.0,400.0,400.0,400.0,440.0,440.0,503.84444444444443,488.5777777777778,475.6222222222222,519.0,558.0,440.0
0,519.0,558.0,499.0,23.0,119.0,160.0,501.0,470.0,400.0,501.0,504.0,504.0,504.0,504.0,506.0,506.0,506.0,516.0,516.0,516.0,515.0,515.0,515.0,515.0,519.0,519.0,519.0,513.0,513.0,470.0,493.0,493.0,493.0,493.0,497.0,497.0,497.0,501.0,501.0,501.0,499.0,499.0,499.0,499.0,558.0,558.0,558.0,532.0,532.0,444.0,422.0,422.0,422.0,422.0,403.0,403.0,403.0,412.0,412.0,412.0,400.0,400.0,400.0,400.0,440.0,440.0,440.0,499.0,499.0,504.9111111111111,490.6222222222222,464.4222222222222,513.0,532.0,499.0
0,519.0,564.0,533.0,23.0,125.0,133.0,504.0,493.0,400.0,504.0,504.0,506.0,506.0,506.0,516.0,516.0,516.0,515.0,515.0,515.0,515.0,519.0,519.0,519.0,513.0,513.0,513.0,518.0,518.0,493.0,493.0,497.0,497.0,497.0,501.0,501.0,501.0,499.0,499.0,499.0,499.0,558.0,558.0,558.0,532.0,532.0,532.0,564.0,564.0,422.0,422.0,403.0,403.0,403.0,412.0,412.0,412.0,400.0,400.0,400.0,400.0,440.0,440.0,440.0,499.0,499.0,499.0,533.0,533.0,505.64444444444445,493.1777777777778,462.93333333333334,518.0,564.0,533.0
0,519.0,583.0,587.0,23.0,144.0,187.0,506.0,497.0,400.0,506.0,506.0,516.0,516.0,516.0,515.0,515.0,515.0,515.0,519.0,519.0,519.0,513.0,513.0,513.0,518.0,518.0,518.0,517.0,517.0,497.0,497.0,501.0,501.0,501.0,499.0,499.0,499.0,499.0,558.0,558.0,558.0,532.0,532.0,532.0,564.0,564.0,564.0,583.0,583.0,403.0,403.0,412.0,412.0,412.0,400.0,400.0,400.0,400.0,440.0,440.0,440.0,499.0,499.0,499.0,533.0,533.0,533.0,587.0,587.0,506.26666666666665,497.55555555555554,466.73333333333335,517.0,583.0,587.0
0,521.0,583.0,587.0,25.0,144.0,187.0,513.0,499.0,400.0,516.0,516.0,515.0,515.0,515.0,515.0,519.0,519.0,519.0,513.0,513.0,513.0,518.0,518.0,518.0,517.0,517.0,517.0,521.0,521.0,501.0,501.0,499.0,499.0,499.0,499.0,558.0,558.0,558.0,532.0,532.0,532.0,564.0,564.0,564.0,583.0,583.0,583.0,556.0,556.0,412.0,412.0,400.0,400.0,400.0,400.0,440.0,440.0,440.0,499.0,499.0,499.0,533.0,533.0,533.0,587.0,587.0,587.0,575.0,575.0,507.64444444444445,502.8222222222222,472.6,521.0,556.0,575.0
0,521.0,583.0,587.0,25.0,144.0,187.0,510.0,499.0,400.0,515.0,515.0,515.0,519.0,519.0,519.0,513.0,513.0,513.0,518.0,518.0,518.0,517.0,517.0,517.0,521.0,521.0,521.0,521.0,510.0,499.0,499.0,499.0,558.0,558.0,558.0,532.0,532.0,532.0,564.0,564.0,564.0,583.0,583.0,583.0,556.0,556.0,556.0,556.0,558.0,400.0,400.0,400.0,440.0,440.0,440.0,499.0,499.0,499.0,533.0,533.0,533.0,587.0,587.0,587.0,575.0,575.0,575.0,575.0,568.0,509.0,507.75555555555553,478.0444444444444,510.0,558.0,568.0
0,521.0,583.0,587.0,25.0,144.0,187.0,510.0,499.0,400.0,515.0,519.0,519.0,519.0,513.0,513.0,513.0,518.0,518.0,518.0,517.0,517.0,517.0,521.0,521.0,521.0,521.0,510.0,510.0,513.0,499.0,558.0,558.0,558.0,532.0,532.0,532.0,564.0,564.0,564.0,583.0,583.0,583.0,556.0,556.0,556.0,556.0,558.0,558.0,547.0,400.0,440.0,440.0,440.0,499.0,499.0,499.0,533.0,533.0,533.0,587.0,587.0,587.0,575.0,575.0,575.0,575.0,568.0,568.0,537.0,509.68888888888887,510.93333333333334,480.77777777777777,513.0,547.0,537.0
0,521.0,583.0,587.0,25.0,134.0,187.0,510.0,532.0,499.0,513.0,513.0,518.0,518.0,518.0,517.0,517.0,517.0,521.0,521.0,521.0,521.0,510.0,510.0,513.0,513.0,513.0,513.0,513.0,513.0,532.0,532.0,564.0,564.0,564.0,583.0,583.0,583.0,556.0,556.0,556.0,556.0,558.0,558.0,547.0,547.0,547.0,547.0,538.0,538.0,499.0,499.0,533.0,533.0,533.0,587.0,587.0,587.0,575.0,575.0,575.0,575.0,568.0,568.0,537.0,537.0,537.0,537.0,503.0,503.0,511.4888888888889,522.3111111111111,482.64444444444445,513.0,538.0,503.0
0,521.0,583.0,587.0,20.0,113.0,187.0,510.0,528.0,486.0,518.0,517.0,517.0,517.0,521.0,521.0,521.0,521.0,510.0,510.0,513.0,513.0,513.0,513.0,513.0,513.0,513.0,513.0,512.0,512.0,564.0,583.0,583.0,583.0,556.0,556.0,556.0,556.0,558.0,558.0,547.0,547.0,547.0,547.0,538.0,538.0,538.0,538.0,528.0,528.0,533.0,587.0,587.0,587.0,575.0,575.0,575.0,575.0,568.0,568.0,537.0,537.0,537.0,537.0,503.0,503.0,503.0,503.0,486.0,486.0,512.8444444444444,529.3111111111111,484.6666666666667,512.0,528.0,486.0
0,521.0,583.0,587.0,17.0,90.0,187.0,507.0,510.0,470.0,517.0,521.0,521.0,521.0,521.0,510.0,510.0,513.0,513.0,513.0,513.0,513.0,513.0,513.0,513.0,512.0,512.0,512.0,507.0,507.0,583.0,556.0,556.0,556.0,556.0,558.0,558.0,547.0,547.0,547.0,547.0,538.0,538.0,538.0,538.0,528.0,528.0,528.0,510.0,510.0,587.0,575.0,575.0,575.0,575.0,568.0,568.0,537.0,537.0,537.0,537.0,503.0,503.0,503.0,503.0,486.0,486.0,486.0,470.0,470.0,513.3555555555556,532.3777777777777,486.75555555555553,507.0,510.0,470.0
0,521.0,558.0,575.0,18.0,86.0,187.0,503.0,499.0,439.0,521.0,510.0,510.0,513.0,513.0,513.0,513.0,513.0,513.0,513.0,513.0,512.0,512.0,512.0,507.0,507.0,507.0,507.0,503.0,503.0,556.0,558.0,558.0,547.0,547.0,547.0,547.0,538.0,538.0,538.0,538.0,528.0,528.0,528.0,510.0,510.0,510.0,510.0,499.0,499.0,575.0,568.0,568.0,537.0,537.0,537.0,537.0,503.0,503.0,503.0,503.0,486.0,486.0,486.0,470.0,470.0,470.0,470.0,439.0,439.0,513.4444444444445,533.4,489.64444444444445,503.0,499.0,439.0
0,513.0,547.0,537.0,18.0,113.0,187.0,503.0,470.0,439.0,513.0,513.0,513.0,513.0,513.0,513.0,513.0,512.0,512.0,512.0,507.0,507.0,507.0,507.0,503.0,503.0,503.0,503.0,506.0,506.0,547.0,547.0,547.0,538.0,538.0,538.0,538.0,528.0,528.0,528.0,510.0,510.0,510.0,510.0,499.0,499.0,499.0,499.0,470.0,470.0,537.0,537.0,537.0,503.0,503.0,503.0,503.0,486.0,486.0,486.0,470.0,470.0,470.0,470.0,439.0,439.0,439.0,439.0,451.0,451.0,513.0888888888888,532.2,493.1777777777778,506.0,470.0,451.0
0,513.0,538.0,503.0,22.0,113.0,187.0,499.0,470.0,439.0,513.0,513.0,513.0,512.0,512.0,512.0,507.0,507.0,507.0,507.0,503.0,503.0,503.0,503.0,506.0,506.0,506.0,506.0,499.0,499.0,538.0,538.0,538.0,528.0,528.0,528.0,510.0,510.0,510.0,510.0,499.0,499.0,499.0,499.0,470.0,470.0,470.0,470.0,472.0,472.0,503.0,503.0,503.0,486.0,486.0,486.0,470.0,470.0,470.0,470.0,439.0,439.0,439.0,439.0,451.0,451.0,451.0,451.0,456.0,456.0,511.93333333333334,529.6222222222223,497.4,499.0,472.0,456.0
0,512.0,528.0,486.0,25.0,113.0,148.0,496.0,470.0,439.0,512.0,512.0,507.0,507.0,507.0,507.0,503.0,503.0,503.0,503.0,506.0,506.0,506.0,506.0,499.0,499.0,499.0,499.0,496.0,496.0,528.0,528.0,510.0,510.0,510.0,510.0,499.0,499.0,499.0,499.0,470.0,470.0,470.0,470.0,472.0,472.0,472.0,472.0,472.0,472.0,486.0,486.0,470.0,470.0,470.0,470.0,439.0,439.0,439.0,439.0,451.0,451.0,451.0,451.0,456.0,456.0,456.0,456.0,485.0,485.0,510.2,524.6,501.8888888888889,496.0,472.0,485.0
0,507.0,510.0,499.0,25.0,124.0,148.0,496.0,459.0,439.0,507.0,507.0,503.0,503.0,503.0,503.0,506.0,506.0,506.0,506.0,499.0,499.0,499.0,499.0,496.0,496.0,496.0,496.0,501.0,501.0,510.0,510.0,499.0,499.0,499.0,499.0,470.0,470.0,470.0,470.0,472.0,472.0,472.0,472.0,472.0,472.0,472.0,472.0,459.0,459.0,470.0,470.0,439.0,439.0,439.0,439.0,451.0,451.0,451.0,451.0,456.0,456.0,456.0,456.0,485.0,485.0,485.0,485.0,499.0,499.0,508.77777777777777,518.1111111111111,502.5777777777778,501.0,459.0,499.0
0,506.0,499.0,539.0,27.0,129.0,148.0,494.0,454.0,439.0,503.0,503.0,506.0,506.0,506.0,506.0,499.0,499.0,499.0,499.0,496.0,496.0,496.0,496.0,501.0,501.0,501.0,501.0,494.0,494.0,499.0,499.0,470.0,470.0,470.0,470.0,472.0,472.0,472.0,472.0,472.0,472.0,472.0,472.0,459.0,459.0,459.0,459.0,454.0,454.0,439.0,439.0,451.0,451.0,451.0,451.0,456.0,456.0,456.0,456.0,485.0,485.0,485.0,485.0,499.0,499.0,499.0,499.0,539.0,539.0,506.97777777777776,508.1333333333333,500.1333333333333,494.0,454.0,539.0
0,506.0,472.0,581.0,27.0,104.0,142.0,494.0,454.0,451.0,506.0,499.0,499.0,499.0,499.0,496.0,496.0,496.0,496.0,501.0,501.0,501.0,501.0,494.0,494.0,494.0,494.0,494.0,501.0,501.0,470.0,472.0,472.0,472.0,472.0,472.0,472.0,472.0,472.0,459.0,459.0,459.0,459.0,454.0,454.0,454.0,454.0,454.0,459.0,459.0,451.0,456.0,456.0,456.0,456.0,485.0,485.0,485.0,485.0,499.0,499.0,499.0,499.0,539.0,539.0,539.0,539.0,539.0,581.0,581.0,504.46666666666664,495.8222222222222,497.46666666666664,501.0,459.0,581.0
0,506.0,472.0,608.0,19.0,93.0,169.0,494.0,454.0,456.0,499.0,499.0,496.0,496.0,496.0,496.0,501.0,501.0,501.0,501.0,494.0,494.0,494.0,494.0,494.0,501.0,501.0,506.0,506.0,506.0,472.0,472.0,472.0,472.0,472.0,472.0,459.0,459.0,459.0,459.0,454.0,454.0,454.0,454.0,454.0,459.0,459.0,454.0,454.0,454.0,456.0,456.0,485.0,485.0,485.0,485.0,499.0,499.0,499.0,499.0,539.0,539.0,539.0,539.0,539.0,581.0,581.0,608.0,608.0,608.0,503.9555555555556,488.93333333333334,499.97777777777776,506.0,454.0,608.0
0,506.0,473.0,608.0,19.0,93.0,169.0,494.0,454.0,485.0,496.0,496.0,496.0,501.0,501.0,501.0,501.0,494.0,494.0,494.0,494.0,494.0,501.0,501.0,506.0,506.0,506.0,506.0,502.0,502.0,472.0,472.0,472.0,459.0,459.0,459.0,459.0,454.0,454.0,454.0,454.0,454.0,459.0,459.0,454.0,454.0,454.0,454.0,473.0,473.0,485.0,485.0,485.0,499.0,499.0,499.0,499.0,539.0,539.0,539.0,539.0,539.0,581.0,581.0,608.0,608.0,608.0,608.0,566.0,566.0,503.31111111111113,483.5777777777778,502.84444444444443,502.0,473.0,566.0
0,506.0,480.0,608.0,19.0,84.0,169.0,494.0,454.0,485.0,501.0,501.0,501.0,494.0,494.0,494.0,494.0,494.0,501.0,501.0,506.0,506.0,506.0,506.0,502.0,502.0,502.0,502.0,505.0,505.0,459.0,459.0,459.0,454.0,454.0,454.0,454.0,454.0,459.0,459.0,454.0,454.0,454.0,454.0,473.0,473.0,473.0,473.0,480.0,480.0,499.0,499.0,499.0,539.0,539.0,539.0,539.0,539.0,581.0,581.0,608.0,608.0,608.0,608.0,566.0,566.0,566.0,566.0,485.0,485.0,502.46666666666664,477.9111111111111,504.0888888888889,505.0,480.0,485.0
0,506.0,491.0,608.0,18.0,74.0,169.0,494.0,454.0,443.0,494.0,494.0,494.0,494.0,494.0,501.0,501.0,506.0,506.0,506.0,506.0,502.0,502.0,502.0,502.0,505.0,505.0,505.0,506.0,506.0,454.0,454.0,454.0,454.0,454.0,459.0,459.0,454.0,454.0,454.0,454.0,473.0,473.0,473.0,473.0,480.0,480.0,480.0,491.0,491.0,539.0,539.0,539.0,539.0,539.0,581.0,581.0,608.0,608.0,608.0,608.0,566.0,566.0,566.0,566.0,485.0,485.0,485.0,443.0,443.0,502.02222222222224,474.97777777777776,501.77777777777777,506.0,491.0,443.0
0,507.0,508.0,608.0,13.0,56.0,169.0,494.0,454.0,443.0,494.0,501.0,501.0,506.0,506.0,506.0,506.0,502.0,502.0,502.0,502.0,505.0,505.0,505.0,506.0,506.0,506.0,506.0,507.0,507.0,454.0,459.0,459.0,454.0,454.0,454.0,454.0,473.0,473.0,473.0,473.0,480.0,480.0,480.0,491.0,491.0,491.0,491.0,508.0,508.0,539.0,581.0,581.0,608.0,608.0,608.0,608.0,566.0,566.0,566.0,566.0,485.0,485.0,485.0,443.0,443.0,443.0,443.0,457.0,457.0,501.8666666666667,473.64444444444445,499.64444444444445,507.0,508.0,457.0
0,514.0,527.0,608.0,20.0,73.0,169.0,502.0,454.0,443.0,506.0,506.0,506.0,506.0,502.0,502.0,502.0,502.0,505.0,505.0,505.0,506.0,506.0,506.0,506.0,507.0,507.0,507.0,514.0,514.0,454.0,454.0,454.0,454.0,473.0,473.0,473.0,473.0,480.0,480.0,480.0,491.0,491.0,491.0,491.0,508.0,508.0,508.0,527.0,527.0,608.0,608.0,608.0,608.0,566.0,566.0,566.0,566.0,485.0,485.0,485.0,443.0,443.0,443.0,443.0,457.0,457.0,457.0,465.0,465.0,502.35555555555555,474.84444444444443,500.5111111111111,514.0,527.0,465.0
0,519.0,527.0,566.0,25.0,73.0,165.0,502.0,473.0,443.0,502.0,502.0,502.0,502.0,505.0,505.0,505.0,506.0,506.0,506.0,506.0,507.0,507.0,507.0,514.0,514.0,514.0,514.0,519.0,519.0,473.0,473.0,473.0,473.0,480.0,480.0,480.0,491.0,491.0,491.0,491.0,508.0,508.0,508.0,527.0,527.0,527.0,527.0,527.0,527.0,566.0,566.0,566.0,566.0,485.0,485.0,485.0,443.0,443.0,443.0,443.0,457.0,457.0,457.0,465.0,465.0,465.0,465.0,475.0,475.0,503.4222222222222,478.6222222222222,502.73333333333335,519.0,527.0,475.0
0,519.0,542.0,485.0,25.0,88.0,165.0,505.0,480.0,443.0,505.0,505.0,505.0,506.0,506.0,506.0,506.0,507.0,507.0,507.0,514.0,514.0,514.0,514.0,519.0,519.0,519.0,519.0,516.0,516.0,480.0,480.0,480.0,491.0,491.0,491.0,491.0,508.0,508.0,508.0,527.0,527.0,527.0,527.0,527.0,527.0,527.0,527.0,542.0,542.0,485.0,485.0,485.0,443.0,443.0,443.0,443.0,457.0,457.0,457.0,465.0,465.0,465.0,465.0,475.0,475.0,475.0,475.0,482.0,482.0,504.75555555555553,484.26666666666665,504.9555555555556,516.0,542.0,482.0
0,519.0,550.0,497.0,25.0,96.0,165.0,506.0,491.0,443.0,506.0,506.0,506.0,507.0,507.0,507.0,514.0,514.0,514.0,514.0,519.0,519.0,519.0,519.0,516.0,516.0,516.0,516.0,518.0,518.0,491.0,491.0,491.0,508.0,508.0,508.0,527.0,527.0,527.0,527.0,527.0,527.0,527.0,527.0,542.0,542.0,542.0,542.0,550.0,550.0,443.0,443.0,443.0,457.0,457.0,457.0,465.0,465.0,465.0,465.0,475.0,475.0,475.0,475.0,482.0,482.0,482.0,482.0,497.0,497.0,506.4888888888889,490.84444444444443,506.64444444444445,518.0,550.0,497.0
0,521.0,566.0,552.0,27.0,112.0,165.0,507.0,508.0,457.0,507.0,507.0,514.0,514.0,514.0,514.0,519.0,519.0,519.0,519.0,516.0,516.0,516.0,516.0,518.0,518.0,518.0,518.0,521.0,521.0,508.0,508.0,527.0,527.0,527.0,527.0,527.0,527.0,527.0,527.0,542.0,542.0,542.0,542.0,550.0,550.0,550.0,550.0,566.0,566.0,457.0,457.0,465.0,465.0,465.0,465.0,475.0,475.0,475.0,475.0,482.0,482.0,482.0,482.0,497.0,497.0,497.0,497.0,552.0,552.0,508.35555555555555,499.06666666666666,509.53333333333336,521.0,566.0,552.0
0,521.0,567.0,577.0,27.0,113.0,165.0,514.0,527.0,465.0,514.0,514.0,519.0,519.0,519.0,519.0,516.0,516.0,516.0,516.0,518.0,518.0,518.0,518.0,521.0,521.0,521.0,521.0,516.0,516.0,527.0,527.0,527.0,527.0,527.0,527.0,542.0,542.0,542.0,542.0,550.0,550.0,550.0,550.0,566.0,566.0,566.0,566.0,567.0,567.0,465.0,465.0,475.0,475.0,475.0,475.0,482.0,482.0,482.0,482.0,497.0,497.0,497.0,497.0,552.0,552.0,552.0,552.0,577.0,577.0,510.22222222222223,508.84444444444443,513.5777777777778,516.0,567.0,577.0
0,521.0,567.0,577.0,20.0,113.0,165.0,510.0,527.0,475.0,519.0,519.0,516.0,516.0,516.0,516.0,518.0,518.0,518.0,518.0,521.0,521.0,521.0,521.0,516.0,516.0,516.0,516.0,516.0,510.0,527.0,527.0,542.0,542.0,542.0,542.0,550.0,550.0,550.0,550.0,566.0,566.0,566.0,566.0,567.0,567.0,567.0,567.0,567.0,563.0,475.0,475.0,482.0,482.0,482.0,482.0,497.0,497.0,497.0,497.0,552.0,552.0,552.0,552.0,577.0,577.0,577.0,577.0,577.0,563.0,511.8888888888889,518.6888888888889,515.7111111111111,510.0,563.0,563.0
0,521.0,567.0,577.0,19.0,94.0,134.0,510.0,542.0,482.0,516.0,518.0,518.0,518.0,518.0,521.0,521.0,521.0,521.0,516.0,516.0,516.0,516.0,516.0,510.0,510.0,510.0,510.0,516.0,516.0,542.0,550.0,550.0,550.0,550.0,566.0,566.0,566.0,566.0,567.0,567.0,567.0,567.0,567.0,563.0,563.0,563.0,563.0,545.0,545.0,482.0,497.0,497.0,497.0,497.0,552.0,552.0,552.0,552.0,577.0,577.0,577.0,577.0,577.0,563.0,563.0,563.0,563.0,561.0,561.0,512.7111111111111,529.8888888888889,511.22222222222223,516.0,545.0,561.0
0,521.0,567.0,577.0,16.0,87.0,134.0,510.0,528.0,497.0,518.0,521.0,521.0,521.0,521.0,516.0,516.0,516.0,516.0,516.0,510.0,510.0,510.0,510.0,516.0,516.0,516.0,516.0,511.0,511.0,550.0,566.0,566.0,566.0,566.0,567.0,567.0,567.0,567.0,567.0,563.0,563.0,563.0,563.0,545.0,545.0,545.0,545.0,528.0,528.0,497.0,552.0,552.0,552.0,552.0,577.0,577.0,577.0,577.0,577.0,563.0,563.0,563.0,563.0,561.0,561.0,561.0,561.0,520.0,520.0,513.7333333333333,535.5333333333333,508.9555555555556,511.0,528.0,520.0
0,521.0,567.0,577.0,18.0,76.0,134.0,503.0,516.0,492.0,521.0,516.0,516.0,516.0,516.0,516.0,510.0,510.0,510.0,510.0,516.0,516.0,516.0,516.0,511.0,511.0,511.0,511.0,503.0,503.0,566.0,567.0,567.0,567.0,567.0,567.0,563.0,563.0,563.0,563.0,545.0,545.0,545.0,545.0,528.0,528.0,528.0,528.0,516.0,516.0,552.0,577.0,577.0,577.0,577.0,577.0,563.0,563.0,563.0,563.0,561.0,561.0,561.0,561.0,520.0,520.0,520.0,520.0,492.0,492.0,513.8888888888889,539.0222222222222,511.75555555555553,503.0,516.0,492.0
0,516.0,567.0,577.0,18.0,64.0,120.0,503.0,503.0,492.0,516.0,516.0,516.0,510.0,510.0,510.0,510.0,516.0,516.0,516.0,516.0,511.0,511.0,511.0,511.0,503.0,503.0,503.0,506.0,506.0,567.0,567.0,567.0,563.0,563.0,563.0,563.0,545.0,545.0,545.0,545.0,528.0,528.0,528.0,528.0,516.0,516.0,516.0,503.0,503.0,577.0,577.0,577.0,563.0,563.0,563.0,563.0,561.0,561.0,561.0,561.0,520.0,520.0,520.0,520.0,492.0,492.0,492.0,493.0,493.0,513.8222222222222,540.1111111111111,515.0666666666667,506.0,503.0,493.0
0,516.0,563.0,563.0,19.0,71.0,112.0,502.0,496.0,492.0,510.0,510.0,510.0,516.0,516.0,516.0,516.0,511.0,511.0,511.0,511.0,503.0,503.0,503.0,506.0,506.0,506.0,506.0,502.0,502.0,563.0,563.0,563.0,545.0,545.0,545.0,545.0,528.0,528.0,528.0,528.0,516.0,516.0,516.0,503.0,503.0,503.0,503.0,496.0,496.0,563.0,563.0,563.0,561.0,561.0,561.0,561.0,520.0,520.0,520.0,520.0,492.0,492.0,492.0,493.0,493.0,493.0,493.0,501.0,501.0,513.4,538.9333333333333,518.4444444444445,502.0,496.0,501.0
0,516.0,545.0,561.0,19.0,71.0,102.0,502.0,496.0,492.0,516.0,516.0,516.0,511.0,511.0,511.0,511.0,503.0,503.0,503.0,506.0,506.0,506.0,506.0,502.0,502.0,502.0,502.0,502.0,502.0,545.0,545.0,545.0,528.0,528.0,528.0,528.0,516.0,516.0,516.0,503.0,503.0,503.0,503.0,496.0,496.0,496.0,496.0,498.0,498.0,561.0,561.0,561.0,520.0,520.0,520.0,520.0,492.0,492.0,492.0,493.0,493.0,493.0,493.0,501.0,501.0,501.0,501.0,498.0,498.0,512.2222222222222,536.2666666666667,521.2888888888889,502.0,498.0,498.0
0,511.0,528.0,520.0,23.0,78.0,95.0,498.0,489.0,490.0,511.0,511.0,511.0,503.0,503.0,503.0,506.0,506.0,506.0,506.0,502.0,502.0,502.0,502.0,502.0,502.0,502.0,502.0,498.0,498.0,528.0,528.0,528.0,516.0,516.0,516.0,503.0,503.0,503.0,503.0,496.0,496.0,496.0,496.0,498.0,498.0,498.0,498.0,489.0,489.0,520.0,520.0,520.0,492.0,492.0,492.0,493.0,493.0,493.0,493.0,501.0,501.0,501.0,501.0,498.0,498.0,498.0,498.0,490.0,490.0,510.6,532.9555555555555,522.8222222222222,498.0,489.0,490.0
0,506.0,516.0,501.0,23.0,100.0,87.0,498.0,467.0,490.0,503.0,503.0,506.0,506.0,506.0,506.0,502.0,502.0,502.0,502.0,502.0,502.0,502.0,502.0,498.0,498.0,498.0,498.0,498.0,498.0,516.0,516.0,503.0,503.0,503.0,503.0,496.0,496.0,496.0,496.0,498.0,498.0,498.0,498.0,489.0,489.0,489.0,489.0,467.0,467.0,492.0,492.0,493.0,493.0,493.0,493.0,501.0,501.0,501.0,501.0,498.0,498.0,498.0,498.0,490.0,490.0,490.0,490.0,495.0,495.0,508.9555555555556,527.0888888888888,523.4222222222222,498.0,467.0,495.0
0,506.0,503.0,507.0,23.0,101.0,87.0,498.0,466.0,490.0,506.0,506.0,506.0,502.0,502.0,502.0,502.0,502.0,502.0,502.0,502.0,498.0,498.0,498.0,498.0,498.0,498.0,498.0,498.0,503.0,503.0,503.0,503.0,496.0,496.0,496.0,496.0,498.0,498.0,498.0,498.0,489.0,489.0,489.0,489.0,467.0,467.0,467.0,467.0,466.0,493.0,493.0,493.0,501.0,501.0,501.0,501.0,498.0,498.0,498.0,498.0,490.0,490.0,490.0,490.0,495.0,495.0,495.0,495.0,507.0,507.73333333333335,521.5333333333333,523.5555555555555,503.0,466.0,507.0
0,503.0,498.0,507.0,18.0,109.0,87.0,498.0,458.0,490.0,502.0,502.0,502.0,502.0,502.0,502.0,502.0,498.0,498.0,498.0,498.0,498.0,498.0,498.0,498.0,503.0,503.0,503.0,499.0,499.0,496.0,496.0,496.0,498.0,498.0,498.0,498.0,489.0,489.0,489.0,489.0,467.0,467.0,467.0,467.0,466.0,466.0,466.0,458.0,458.0,501.0,501.0,501.0,498.0,498.0,498.0,498.0,490.0,490.0,490.0,490.0,495.0,495.0,495.0,495.0,507.0,507.0,507.0,507.0,507.0,505.9555555555556,512.2888888888889,519.5555555555555,499.0,458.0,507.0
0,503.0,498.0,507.0,18.0,109.0,87.0,498.0,458.0,490.0,502.0,502.0,502.0,502.0,502.0,498.0,498.0,498.0,498.0,498.0,498.0,498.0,498.0,503.0,503.0,503.0,499.0,499.0,499.0,499.0,496.0,498.0,498.0,498.0,498.0,489.0,489.0,489.0,489.0,467.0,467.0,467.0,467.0,466.0,466.0,466.0,458.0,458.0,458.0,458.0,501.0,498.0,498.0,498.0,498.0,490.0,490.0,490.0,490.0,495.0,495.0,495.0,495.0,507.0,507.0,507.0,507.0,507.0,507.0,507.0,505.2,507.44444444444446,516.4444444444445,499.0,458.0,507.0
0,503.0,498.0,521.0,23.0,105.0,73.0,493.0,458.0,490.0,502.0,498.0,498.0,498.0,498.0,498.0,498.0,498.0,498.0,503.0,503.0,503.0,499.0,499.0,499.0,499.0,493.0,493.0,501.0,501.0,498.0,489.0,489.0,489.0,489.0,467.0,467.0,467.0,467.0,466.0,466.0,466.0,458.0,458.0,458.0,458.0,474.0,474.0,490.0,490.0,498.0,490.0,490.0,490.0,490.0,495.0,495.0,495.0,495.0,507.0,507.0,507.0,507.0,507.0,507.0,507.0,506.0,506.0,521.0,521.0,503.64444444444445,499.97777777777776,511.1111111111111,501.0,490.0,521.0
0,506.0,491.0,524.0,23.0,87.0,71.0,493.0,458.0,490.0,498.0,498.0,498.0,498.0,498.0,503.0,503.0,503.0,499.0,499.0,499.0,499.0,493.0,493.0,501.0,501.0,501.0,501.0,506.0,506.0,489.0,467.0,467.0,467.0,467.0,466.0,466.0,466.0,458.0,458.0,458.0,458.0,474.0,474.0,490.0,490.0,490.0,490.0,491.0,491.0,490.0,495.0,495.0,495.0,495.0,507.0,507.0,507.0,507.0,507.0,507.0,507.0,506.0,506.0,521.0,521.0,521.0,521.0,524.0,524.0,502.93333333333334,493.93333333333334,507.55555555555554,506.0,491.0,524.0
0,509.0,507.0,524.0,18.0,70.0,34.0,493.0,458.0,495.0,498.0,503.0,503.0,503.0,499.0,499.0,499.0,499.0,493.0,493.0,501.0,501.0,501.0,501.0,506.0,506.0,506.0,506.0,509.0,509.0,467.0,466.0,466.0,466.0,458.0,458.0,458.0,458.0,474.0,474.0,490.0,490.0,490.0,490.0,491.0,491.0,491.0,491.0,507.0,507.0,495.0,507.0,507.0,507.0,507.0,507.0,507.0,507.0,506.0,506.0,521.0,521.0,521.0,521.0,524.0,524.0,524.0,524.0,517.0,517.0,502.2888888888889,490.22222222222223,504.8666666666667,509.0,507.0,517.0
0,509.0,510.0,524.0,16.0,58.0,51.0,493.0,458.0,473.0,503.0,499.0,499.0,499.0,499.0,493.0,493.0,501.0,501.0,501.0,501.0,506.0,506.0,506.0,506.0,509.0,509.0,509.0,508.0,508.0,466.0,458.0,458.0,458.0,458.0,474.0,474.0,490.0,490.0,490.0,490.0,491.0,491.0,491.0,491.0,507.0,507.0,507.0,510.0,510.0,507.0,507.0,507.0,507.0,507.0,506.0,506.0,521.0,521.0,521.0,521.0,524.0,524.0,524.0,524.0,517.0,517.0,517.0,473.0,473.0,502.1111111111111,488.9555555555556,502.7111111111111,508.0,510.0,473.0
0,515.0,516.0,524.0,22.0,58.0,52.0,493.0,474.0,472.0,493.0,493.0,501.0,501.0,501.0,501.0,506.0,506.0,506.0,506.0,509.0,509.0,509.0,508.0,508.0,508.0,508.0,508.0,515.0,515.0,474.0,474.0,490.0,490.0,490.0,490.0,491.0,491.0,491.0,491.0,507.0,507.0,507.0,510.0,510.0,510.0,510.0,510.0,516.0,516.0,506.0,506.0,521.0,521.0,521.0,521.0,524.0,524.0,524.0,524.0,517.0,517.0,517.0,473.0,473.0,473.0,473.0,473.0,472.0,472.0,502.84444444444443,489.1333333333333,500.5111111111111,515.0,516.0,472.0
0,515.0,533.0,524.0,22.0,75.0,52.0,501.0,490.0,472.0,501.0,501.0,506.0,506.0,506.0,506.0,509.0,509.0,509.0,508.0,508.0,508.0,508.0,508.0,515.0,515.0,515.0,515.0,514.0,514.0,490.0,490.0,491.0,491.0,491.0,491.0,507.0,507.0,507.0,510.0,510.0,510.0,510.0,510.0,516.0,516.0,516.0,516.0,533.0,533.0,521.0,521.0,524.0,524.0,524.0,524.0,517.0,517.0,517.0,473.0,473.0,473.0,473.0,473.0,472.0,472.0,472.0,472.0,473.0,473.0,503.77777777777777,491.35555555555555,498.3333333333333,514.0,533.0,473.0
0,522.0,533.0,524.0,29.0,75.0,52.0,506.0,491.0,472.0,506.0,509.0,509.0,509.0,508.0,508.0,508.0,508.0,508.0,515.0,515.0,515.0,515.0,514.0,514.0,514.0,514.0,522.0,522.0,522.0,491.0,507.0,507.0,507.0,510.0,510.0,510.0,510.0,510.0,516.0,516.0,516.0,516.0,533.0,533.0,533.0,533.0,533.0,533.0,533.0,524.0,517.0,517.0,517.0,473.0,473.0,473.0,473.0,473.0,472.0,472.0,472.0,472.0,473.0,473.0,473.0,473.0,482.0,482.0,482.0,505.64444444444445,495.3333333333333,496.02222222222224,522.0,533.0,482.0
0,522.0,551.0,482.0,29.0,93.0,52.0,508.0,510.0,472.0,508.0,508.0,508.0,508.0,508.0,515.0,515.0,515.0,515.0,514.0,514.0,514.0,514.0,522.0,522.0,522.0,522.0,522.0,522.0,522.0,510.0,510.0,510.0,510.0,510.0,516.0,516.0,516.0,516.0,533.0,533.0,533.0,533.0,533.0,533.0,533.0,533.0,533.0,551.0,551.0,473.0,473.0,473.0,473.0,473.0,472.0,472.0,472.0,472.0,473.0,473.0,473.0,473.0,482.0,482.0,482.0,482.0,482.0,481.0,481.0,507.68888888888887,499.84444444444443,495.0888888888889,522.0,551.0,481.0
0,522.0,551.0,502.0,29.0,93.0,52.0,508.0,510.0,472.0,508.0,508.0,508.0,515.0,515.0,515.0,515.0,514.0,514.0,514.0,514.0,522.0,522.0,522.0,522.0,522.0,522.0,522.0,522.0,520.0,510.0,510.0,510.0,516.0,516.0,516.0,516.0,533.0,533.0,533.0,533.0,533.0,533.0,533.0,533.0,533.0,551.0,551.0,551.0,550.0,473.0,473.0,473.0,472.0,472.0,472.0,472.0,473.0,473.0,473.0,473.0,482.0,482.0,482.0,482.0,482.0,481.0,481.0,481.0,502.0,508.7111111111111,503.06666666666666,495.0444444444444,520.0,550.0,502.0
0,522.0,556.0,522.0,29.0,98.0,52.0,514.0,516.0,472.0,515.0,514.0,514.0,514.0,514.0,522.0,522.0,522.0,522.0,522.0,522.0,522.0,522.0,520.0,520.0,520.0,520.0,520.0,518.0,518.0,516.0,533.0,533.0,533.0,533.0,533.0,533.0,533.0,533.0,533.0,551.0,551.0,551.0,550.0,550.0,550.0,550.0,550.0,556.0,556.0,472.0,473.0,473.0,473.0,473.0,482.0,482.0,482.0,482.0,482.0,481.0,481.0,481.0,502.0,502.0,502.0,502.0,502.0,522.0,522.0,510.8888888888889,512.4666666666667,495.73333333333335,518.0,556.0,522.0
0,522.0,561.0,556.0,29.0,87.0,84.0,514.0,533.0,473.0,514.0,522.0,522.0,522.0,522.0,522.0,522.0,522.0,522.0,520.0,520.0,520.0,520.0,520.0,518.0,518.0,518.0,518.0,515.0,515.0,533.0,533.0,533.0,533.0,533.0,533.0,551.0,551.0,551.0,550.0,550.0,550.0,550.0,550.0,556.0,556.0,556.0,556.0,561.0,561.0,473.0,482.0,482.0,482.0,482.0,482.0,481.0,481.0,481.0,502.0,502.0,502.0,502.0,502.0,522.0,522.0,522.0,522.0,556.0,556.0,512.7777777777778,523.4,498.9111111111111,515.0,561.0,556.0
0,522.0,561.0,557.0,21.0,71.0,85.0,515.0,528.0,481.0,522.0,522.0,522.0,522.0,522.0,520.0,520.0,520.0,520.0,520.0,518.0,518.0,518.0,518.0,515.0,515.0,515.0,515.0,517.0,517.0,533.0,533.0,551.0,551.0,551.0,550.0,550.0,550.0,550.0,550.0,556.0,556.0,556.0,556.0,561.0,561.0,561.0,561.0,528.0,528.0,482.0,482.0,481.0,481.0,481.0,502.0,502.0,502.0,502.0,502.0,522.0,522.0,522.0,522.0,556.0,556.0,556.0,556.0,557.0,557.0,514.4666666666667,528.9555555555555,502.73333333333335,517.0,528.0,557.0
0,522.0,561.0,557.0,16.0,70.0,85.0,510.0,528.0,481.0,522.0,520.0,520.0,520.0,520.0,520.0,518.0,518.0,518.0,518.0,515.0,515.0,515.0,515.0,517.0,517.0,517.0,517.0,510.0,510.0,551.0,550.0,550.0,550.0,550.0,550.0,556.0,556.0,556.0,556.0,561.0,561.0,561.0,561.0,528.0,528.0,528.0,528.0,544.0,544.0,481.0,502.0,502.0,502.0,502.0,502.0,522.0,522.0,522.0,522.0,556.0,556.0,556.0,556.0,557.0,557.0,557.0,557.0,552.0,552.0,515.3555555555556,533.0,505.5777777777778,510.0,544.0,552.0
0,520.0,561.0,560.0,17.0,51.0,88.0,505.0,528.0,502.0,520.0,518.0,518.0,518.0,518.0,515.0,515.0,515.0,515.0,517.0,517.0,517.0,517.0,510.0,510.0,510.0,510.0,510.0,505.0,505.0,550.0,556.0,556.0,556.0,556.0,561.0,561.0,561.0,561.0,528.0,528.0,528.0,528.0,544.0,544.0,544.0,544.0,544.0,534.0,534.0,502.0,522.0,522.0,522.0,522.0,556.0,556.0,556.0,556.0,557.0,557.0,557.0,557.0,552.0,552.0,552.0,552.0,552.0,560.0,560.0,515.3777777777777,537.3777777777777,509.5111111111111,505.0,534.0,560.0
0,518.0,561.0,560.0,17.0,51.0,88.0,505.0,514.0,522.0,518.0,515.0,515.0,515.0,515.0,517.0,517.0,517.0,517.0,510.0,510.0,510.0,510.0,510.0,505.0,505.0,505.0,505.0,505.0,505.0,556.0,561.0,561.0,561.0,561.0,528.0,528.0,528.0,528.0,544.0,544.0,544.0,544.0,544.0,534.0,534.0,534.0,534.0,514.0,514.0,522.0,556.0,556.0,556.0,556.0,557.0,557.0,557.0,557.0,552.0,552.0,552.0,552.0,552.0,560.0,560.0,560.0,560.0,553.0,553.0,515.1111111111111,538.6222222222223,516.9333333333333,505.0,514.0,553.0
0,517.0,561.0,560.0,20.0,64.0,88.0,502.0,497.0,538.0,515.0,517.0,517.0,517.0,517.0,510.0,510.0,510.0,510.0,510.0,505.0,505.0,505.0,505.0,505.0,505.0,505.0,505.0,502.0,502.0,561.0,528.0,528.0,528.0,528.0,544.0,544.0,544.0,544.0,544.0,534.0,534.0,534.0,534.0,514.0,514.0,514.0,514.0,497.0,497.0,556.0,557.0,557.0,557.0,557.0,552.0,552.0,552.0,552.0,552.0,560.0,560.0,560.0,560.0,553.0,553.0,553.0,553.0,538.0,538.0,514.2444444444444,537.8222222222222,523.4444444444445,502.0,497.0,538.0
0,517.0,544.0,560.0,21.0,70.0,87.0,501.0,491.0,507.0,517.0,510.0,510.0,510.0,510.0,510.0,505.0,505.0,505.0,505.0,505.0,505.0,505.0,505.0,502.0,502.0,502.0,502.0,501.0,501.0,528.0,544.0,544.0,544.0,544.0,544.0,534.0,534.0,534.0,534.0,514.0,514.0,514.0,514.0,497.0,497.0,497.0,497.0,491.0,491.0,557.0,552.0,552.0,552.0,552.0,552.0,560.0,560.0,560.0,560.0,553.0,553.0,553.0,553.0,538.0,538.0,538.0,538.0,507.0,507.0,513.1111111111111,534.7333333333333,527.8666666666667,501.0,491.0,507.0
0,510.0,544.0,560.0,22.0,74.0,79.0,500.0,487.0,493.0,510.0,510.0,505.0,505.0,505.0,505.0,505.0,505.0,505.0,505.0,502.0,502.0,502.0,502.0,501.0,501.0,501.0,501.0,500.0,500.0,544.0,544.0,534.0,534.0,534.0,534.0,514.0,514.0,514.0,514.0,497.0,497.0,497.0,497.0,491.0,491.0,491.0,491.0,487.0,487.0,552.0,552.0,560.0,560.0,560.0,560.0,553.0,553.0,553.0,553.0,538.0,538.0,538.0,538.0,507.0,507.0,507.0,507.0,493.0,493.0,511.3777777777778,530.8222222222222,529.6666666666666,500.0,487.0,493.0
0,505.0,534.0,560.0,28.0,97.0,82.0,494.0,464.0,478.0,505.0,505.0,505.0,505.0,505.0,505.0,502.0,502.0,502.0,502.0,501.0,501.0,501.0,501.0,500.0,500.0,500.0,500.0,494.0,494.0,534.0,534.0,514.0,514.0,514.0,514.0,497.0,497.0,497.0,497.0,491.0,491.0,491.0,491.0,487.0,487.0,487.0,487.0,464.0,464.0,560.0,560.0,553.0,553.0,553.0,553.0,538.0,538.0,538.0,538.0,507.0,507.0,507.0,507.0,493.0,493.0,493.0,493.0,478.0,478.0,509.15555555555557,524.9111111111112,530.0222222222222,494.0,464.0,478.0
0,505.0,514.0,553.0,26.0,99.0,85.0,494.0,462.0,475.0,505.0,505.0,502.0,502.0,502.0,502.0,501.0,501.0,501.0,501.0,500.0,500.0,500.0,500.0,494.0,494.0,494.0,494.0,495.0,495.0,514.0,514.0,497.0,497.0,497.0,497.0,491.0,491.0,491.0,491.0,487.0,487.0,487.0,487.0,464.0,464.0,464.0,464.0,462.0,462.0,553.0,553.0,538.0,538.0,538.0,538.0,507.0,507.0,507.0,507.0,493.0,493.0,493.0,493.0,478.0,478.0,478.0,478.0,475.0,475.0,506.84444444444443,517.1555555555556,528.2222222222222,495.0,462.0,475.0
