,emg_ampl_0,emg_ampl_1,emg_ampl_2,emg_max_0,emg_max_1,emg_max_2,emg_prev_0_0,emg_prev_0_1,emg_prev_0_2,emg_prev_0_3,emg_prev_0_4,emg_prev_0_5,emg_prev_0_6,emg_prev_0_7,emg_prev_0_8,emg_prev_0_9,emg_prev_0_10,emg_prev_0_11,emg_prev_0_12,emg_prev_0_13,emg_prev_0_14,emg_prev_0_15,emg_prev_0_16,emg_prev_0_17,emg_prev_0_18,emg_prev_0_19,emg_prev_1_0,emg_prev_1_1,emg_prev_1_2,emg_prev_1_3,emg_prev_1_4,emg_prev_1_5,emg_prev_1_6,emg_prev_1_7,emg_prev_1_8,emg_prev_1_9,emg_prev_1_10,emg_prev_1_11,emg_prev_1_12,emg_prev_1_13,emg_prev_1_14,emg_prev_1_15,emg_prev_1_16,emg_prev_1_17,emg_prev_1_18,emg_prev_1_19,emg_prev_2_0,emg_prev_2_1,emg_prev_2_2,emg_prev_2_3,emg_prev_2_4,emg_prev_2_5,emg_prev_2_6,emg_prev_2_7,emg_prev_2_8,emg_prev_2_9,emg_prev_2_10,emg_prev_2_11,emg_prev_2_12,emg_prev_2_13,emg_prev_2_14,emg_prev_2_15,emg_prev_2_16,emg_prev_2_17,emg_prev_2_18,emg_prev_2_19,emg_min_0,emg_min_1,emg_min_2,emg_0,emg_1,emg_2,emg_med_0,emg_med_1,emg_med_2
0,10.0,35.0,15.0,547.0,492.0,525.0,547.0,547.0,547.0,547.0,547.0,547.0,547.0,547.0,547.0,547.0,547.0,547.0,547.0,547.0,547.0,547.0,547.0,547.0,547.0,547.0,492.0,492.0,492.0,492.0,492.0,492.0,492.0,492.0,492.0,492.0,492.0,492.0,492.0,492.0,492.0,492.0,492.0,492.0,492.0,492.0,525.0,525.0,525.0,525.0,525.0,525.0,525.0,525.0,525.0,525.0,525.0,525.0,525.0,525.0,525.0,525.0,525.0,525.0,525.0,525.0,547.0,492.0,525.0,500,500,500,545.0,499.0,522.0
0,29.0,35.0,12.0,534.0,469.0,527.0,534.0,534.0,534.0,534.0,534.0,534.0,534.0,534.0,534.0,534.0,534.0,534.0,534.0,534.0,534.0,518.0,518.0,518.0,518.0,518.0,469.0,469.0,469.0,469.0,469.0,469.0,469.0,469.0,469.0,469.0,469.0,469.0,469.0,469.0,469.0,457.0,457.0,457.0,457.0,457.0,527.0,527.0,527.0,527.0,527.0,527.0,527.0,527.0,527.0,527.0,527.0,527.0,527.0,527.0,527.0,515.0,515.0,515.0,515.0,515.0,518.0,457.0,515.0,500,500,500,536.3,474.7,525.2
0,31.0,12.0,13.0,518.0,468.0,515.0,518.0,518.0,518.0,518.0,518.0,518.0,518.0,518.0,518.0,518.0,518.0,518.0,503.0,503.0,503.0,503.0,503.0,503.0,503.0,503.0,457.0,457.0,457.0,457.0,457.0,457.0,457.0,457.0,457.0,457.0,457.0,457.0,468.0,468.0,468.0,468.0,468.0,468.0,468.0,468.0,515.0,515.0,515.0,515.0,515.0,515.0,515.0,515.0,515.0,515.0,515.0,515.0,514.0,514.0,514.0,514.0,514.0,514.0,514.0,514.0,503.0,457.0,514.0,500,500,500,519.3333333333334,463.93333333333334,518.7333333333333
0,26.0,18.0,5.0,503.0,505.0,519.0,503.0,503.0,503.0,503.0,503.0,492.0,492.0,492.0,492.0,492.0,492.0,492.0,492.0,492.0,492.0,492.0,492.0,492.0,492.0,491.0,468.0,468.0,468.0,468.0,468.0,475.0,475.0,475.0,475.0,475.0,475.0,475.0,475.0,475.0,475.0,475.0,475.0,475.0,475.0,505.0,514.0,514.0,514.0,514.0,514.0,519.0,519.0,519.0,519.0,519.0,519.0,519.0,519.0,519.0,519.0,519.0,519.0,519.0,519.0,496.0,491.0,468.0,496.0,500,500,500,499.73333333333335,472.1333333333333,515.7666666666667
0,3.0,65.0,23.0,494.0,540.0,497.0,491.0,491.0,491.0,491.0,491.0,491.0,491.0,491.0,491.0,491.0,494.0,494.0,494.0,494.0,494.0,494.0,494.0,494.0,494.0,494.0,505.0,505.0,505.0,505.0,505.0,505.0,505.0,505.0,505.0,505.0,540.0,540.0,540.0,540.0,540.0,540.0,540.0,540.0,540.0,540.0,496.0,496.0,496.0,496.0,496.0,496.0,496.0,496.0,496.0,496.0,497.0,497.0,497.0,497.0,497.0,497.0,497.0,497.0,497.0,497.0,491.0,505.0,496.0,500,500,500,492.03333333333336,507.3333333333333,501.6333333333333
0,39.0,35.0,3.0,530.0,540.0,499.0,494.0,494.0,494.0,494.0,494.0,494.0,494.0,494.0,494.0,494.0,494.0,494.0,494.0,494.0,494.0,494.0,530.0,530.0,530.0,530.0,540.0,540.0,540.0,540.0,540.0,540.0,540.0,540.0,540.0,540.0,540.0,540.0,540.0,540.0,540.0,540.0,532.0,532.0,532.0,532.0,497.0,497.0,497.0,497.0,497.0,497.0,497.0,497.0,497.0,497.0,497.0,497.0,497.0,497.0,497.0,497.0,499.0,499.0,499.0,499.0,494.0,532.0,497.0,500,500,500,496.9,531.0333333333333,496.96666666666664
0,36.0,13.0,16.0,530.0,540.0,513.0,494.0,530.0,530.0,530.0,530.0,530.0,530.0,530.0,530.0,530.0,530.0,530.0,530.0,530.0,529.0,529.0,529.0,529.0,529.0,529.0,540.0,532.0,532.0,532.0,532.0,532.0,532.0,532.0,532.0,532.0,532.0,532.0,532.0,532.0,527.0,527.0,527.0,527.0,527.0,527.0,497.0,499.0,499.0,499.0,499.0,499.0,499.0,499.0,499.0,499.0,499.0,499.0,499.0,499.0,513.0,513.0,513.0,513.0,513.0,513.0,494.0,527.0,497.0,500,500,500,516.6666666666666,534.2666666666667,500.1333333333333
0,6.0,5.0,21.0,529.0,531.0,520.0,529.0,529.0,529.0,529.0,529.0,529.0,529.0,524.0,524.0,524.0,524.0,524.0,524.0,524.0,524.0,524.0,524.0,524.0,524.0,524.0,527.0,527.0,527.0,527.0,527.0,527.0,527.0,531.0,531.0,531.0,531.0,531.0,531.0,531.0,531.0,531.0,531.0,531.0,531.0,531.0,513.0,513.0,513.0,513.0,513.0,513.0,513.0,520.0,520.0,520.0,520.0,520.0,520.0,520.0,520.0,520.0,520.0,520.0,520.0,520.0,524.0,527.0,513.0,500,500,500,527.4333333333333,529.8,511.8333333333333
0,9.0,12.0,15.0,524.0,531.0,520.0,524.0,524.0,524.0,524.0,524.0,524.0,524.0,515.0,515.0,515.0,515.0,515.0,515.0,515.0,515.0,515.0,515.0,515.0,515.0,515.0,531.0,531.0,531.0,531.0,531.0,531.0,531.0,519.0,519.0,519.0,519.0,519.0,519.0,519.0,519.0,519.0,519.0,519.0,519.0,519.0,520.0,520.0,520.0,520.0,520.0,520.0,520.0,505.0,505.0,505.0,505.0,505.0,505.0,505.0,505.0,505.0,505.0,505.0,505.0,505.0,515.0,519.0,505.0,500,500,500,520.1,525.8,513.5
0,7.0,12.0,8.0,515.0,519.0,513.0,515.0,515.0,515.0,515.0,508.0,508.0,508.0,508.0,508.0,508.0,508.0,508.0,508.0,508.0,508.0,508.0,508.0,508.0,508.0,498.0,519.0,519.0,519.0,519.0,507.0,507.0,507.0,507.0,507.0,507.0,507.0,507.0,507.0,507.0,507.0,507.0,507.0,507.0,507.0,502.0,505.0,505.0,505.0,505.0,513.0,513.0,513.0,513.0,513.0,513.0,513.0,513.0,513.0,513.0,513.0,513.0,513.0,513.0,513.0,523.0,508.0,507.0,505.0,500,500,500,511.5,513.0,509.0
0,12.0,15.0,22.0,498.0,502.0,523.0,498.0,498.0,498.0,498.0,498.0,498.0,498.0,498.0,496.0,496.0,496.0,496.0,496.0,496.0,496.0,496.0,496.0,496.0,496.0,496.0,502.0,502.0,502.0,502.0,502.0,502.0,502.0,502.0,492.0,492.0,492.0,492.0,492.0,492.0,492.0,492.0,492.0,492.0,492.0,492.0,523.0,523.0,523.0,523.0,523.0,523.0,523.0,523.0,501.0,501.0,501.0,501.0,501.0,501.0,501.0,501.0,501.0,501.0,501.0,501.0,496.0,492.0,501.0,500,500,500,500.26666666666665,499.8333333333333,511.93333333333334
0,4.0,12.0,6.0,496.0,504.0,501.0,496.0,496.0,492.0,492.0,492.0,492.0,492.0,492.0,492.0,492.0,492.0,492.0,492.0,492.0,492.0,492.0,492.0,492.0,492.0,492.0,492.0,492.0,504.0,504.0,504.0,504.0,504.0,504.0,504.0,504.0,504.0,504.0,504.0,504.0,504.0,504.0,504.0,504.0,504.0,504.0,501.0,501.0,495.0,495.0,495.0,495.0,495.0,495.0,495.0,495.0,495.0,495.0,495.0,495.0,495.0,495.0,495.0,495.0,495.0,495.0,492.0,492.0,495.0,500,500,500,493.73333333333335,498.8,497.6
0,7.0,5.0,18.0,492.0,504.0,513.0,492.0,492.0,492.0,492.0,492.0,492.0,492.0,492.0,485.0,485.0,485.0,485.0,485.0,485.0,485.0,485.0,485.0,488.0,488.0,488.0,504.0,504.0,504.0,504.0,504.0,504.0,504.0,504.0,500.0,500.0,500.0,500.0,500.0,500.0,500.0,500.0,500.0,499.0,499.0,499.0,495.0,495.0,495.0,495.0,495.0,495.0,495.0,495.0,510.0,510.0,510.0,510.0,510.0,510.0,510.0,510.0,510.0,513.0,513.0,513.0,485.0,499.0,495.0,500,500,500,489.53333333333336,502.5,500.6
0,7.0,5.0,18.0,488.0,500.0,513.0,485.0,485.0,485.0,485.0,488.0,488.0,488.0,488.0,488.0,488.0,488.0,488.0,488.0,488.0,488.0,488.0,488.0,488.0,488.0,488.0,500.0,500.0,500.0,500.0,499.0,499.0,499.0,499.0,499.0,499.0,499.0,499.0,499.0,499.0,499.0,499.0,499.0,499.0,499.0,499.0,510.0,510.0,510.0,510.0,513.0,513.0,513.0,513.0,513.0,513.0,513.0,513.0,513.0,513.0,513.0,513.0,513.0,513.0,513.0,513.0,485.0,499.0,510.0,500,500,500,487.53333333333336,500.0,509.6
0,10.0,9.0,7.0,498.0,503.0,520.0,491.0,491.0,491.0,498.0,498.0,498.0,498.0,498.0,498.0,498.0,498.0,498.0,498.0,498.0,498.0,498.0,498.0,498.0,498.0,498.0,503.0,503.0,503.0,494.0,494.0,494.0,494.0,494.0,494.0,494.0,494.0,494.0,494.0,494.0,494.0,494.0,494.0,494.0,494.0,494.0,520.0,520.0,520.0,519.0,519.0,519.0,519.0,519.0,519.0,519.0,519.0,519.0,519.0,519.0,519.0,519.0,519.0,519.0,519.0,519.0,491.0,494.0,519.0,500,500,500,494.46666666666664,497.23333333333335,518.2666666666667
0,12.0,20.0,34.0,510.0,514.0,507.0,502.0,502.0,502.0,502.0,502.0,502.0,502.0,502.0,502.0,502.0,502.0,510.0,510.0,510.0,510.0,510.0,510.0,510.0,510.0,510.0,514.0,514.0,514.0,514.0,514.0,514.0,514.0,514.0,514.0,514.0,514.0,502.0,502.0,502.0,502.0,502.0,502.0,502.0,502.0,502.0,507.0,507.0,507.0,507.0,507.0,507.0,507.0,507.0,507.0,507.0,507.0,485.0,485.0,485.0,485.0,485.0,485.0,485.0,485.0,485.0,502.0,502.0,485.0,500,500,500,503.2,506.1333333333333,503.93333333333334
0,8.0,12.0,22.0,510.0,502.0,485.0,510.0,510.0,510.0,510.0,510.0,510.0,510.0,510.0,510.0,510.0,510.0,510.0,510.0,510.0,510.0,510.0,510.0,510.0,511.0,511.0,502.0,502.0,502.0,502.0,502.0,502.0,502.0,502.0,502.0,502.0,502.0,502.0,502.0,502.0,502.0,502.0,502.0,502.0,510.0,510.0,485.0,485.0,485.0,485.0,485.0,485.0,485.0,485.0,485.0,485.0,485.0,485.0,485.0,485.0,485.0,485.0,485.0,485.0,519.0,519.0,510.0,502.0,485.0,500,500,500,507.6,505.6,491.6
0,10.0,13.0,34.0,520.0,510.0,519.0,511.0,511.0,511.0,511.0,511.0,511.0,511.0,511.0,520.0,520.0,520.0,520.0,520.0,520.0,520.0,520.0,520.0,520.0,520.0,520.0,510.0,510.0,510.0,510.0,510.0,510.0,510.0,510.0,497.0,497.0,497.0,497.0,497.0,497.0,497.0,497.0,497.0,497.0,497.0,497.0,519.0,519.0,519.0,519.0,519.0,519.0,519.0,519.0,516.0,516.0,516.0,516.0,516.0,516.0,516.0,516.0,516.0,516.0,516.0,516.0,511.0,497.0,516.0,500,500,500,514.4666666666667,503.73333333333335,513.2666666666667
0,4.0,10.0,12.0,520.0,506.0,528.0,520.0,520.0,520.0,516.0,516.0,516.0,516.0,516.0,516.0,516.0,516.0,516.0,516.0,516.0,516.0,516.0,516.0,516.0,516.0,516.0,497.0,497.0,497.0,496.0,496.0,496.0,496.0,496.0,496.0,496.0,506.0,506.0,506.0,506.0,506.0,506.0,506.0,506.0,506.0,506.0,516.0,516.0,516.0,528.0,528.0,528.0,528.0,528.0,528.0,528.0,518.0,518.0,518.0,518.0,518.0,518.0,518.0,518.0,518.0,518.0,516.0,496.0,516.0,500,500,500,517.8666666666667,499.46666666666664,519.4
0,3.0,20.0,15.0,519.0,506.0,518.0,516.0,516.0,516.0,516.0,516.0,516.0,516.0,516.0,516.0,519.0,519.0,519.0,519.0,519.0,519.0,519.0,519.0,519.0,519.0,519.0,506.0,506.0,506.0,506.0,506.0,506.0,506.0,506.0,506.0,486.0,486.0,486.0,486.0,486.0,486.0,486.0,486.0,486.0,486.0,486.0,518.0,518.0,518.0,518.0,518.0,518.0,518.0,518.0,518.0,503.0,503.0,503.0,503.0,503.0,503.0,503.0,503.0,503.0,503.0,503.0,516.0,486.0,503.0,500,500,500,517.0,499.3333333333333,513.0
0,5.0,10.0,8.0,519.0,496.0,511.0,519.0,519.0,519.0,519.0,519.0,519.0,514.0,514.0,514.0,514.0,514.0,514.0,514.0,514.0,514.0,514.0,514.0,514.0,514.0,514.0,486.0,486.0,486.0,486.0,486.0,486.0,496.0,496.0,496.0,496.0,496.0,496.0,496.0,496.0,496.0,496.0,496.0,496.0,496.0,496.0,503.0,503.0,503.0,503.0,503.0,503.0,511.0,511.0,511.0,511.0,511.0,511.0,511.0,511.0,511.0,511.0,511.0,511.0,511.0,511.0,514.0,486.0,503.0,500,500,500,516.6666666666666,490.6666666666667,506.73333333333335
0,0.0,4.0,5.0,514.0,496.0,516.0,514.0,514.0,514.0,514.0,514.0,514.0,514.0,514.0,514.0,514.0,514.0,514.0,514.0,514.0,514.0,514.0,514.0,514.0,514.0,514.0,496.0,496.0,496.0,496.0,496.0,496.0,496.0,492.0,492.0,492.0,492.0,492.0,492.0,492.0,492.0,492.0,492.0,492.0,492.0,492.0,511.0,511.0,511.0,511.0,511.0,511.0,511.0,516.0,516.0,516.0,516.0,516.0,516.0,516.0,516.0,516.0,516.0,516.0,516.0,516.0,514.0,492.0,511.0,500,500,500,514.0,494.26666666666665,513.1666666666666
0,9.0,10.0,6.0,518.0,502.0,516.0,514.0,514.0,514.0,514.0,514.0,514.0,514.0,509.0,509.0,509.0,509.0,509.0,509.0,509.0,509.0,509.0,509.0,509.0,518.0,518.0,492.0,492.0,492.0,492.0,492.0,492.0,492.0,502.0,502.0,502.0,502.0,502.0,502.0,502.0,502.0,502.0,502.0,502.0,498.0,498.0,516.0,516.0,516.0,516.0,516.0,516.0,516.0,511.0,511.0,511.0,511.0,511.0,511.0,511.0,511.0,511.0,511.0,511.0,510.0,510.0,509.0,492.0,510.0,500,500,500,512.4333333333333,496.2,513.6
0,9.0,10.0,6.0,518.0,502.0,511.0,509.0,509.0,509.0,509.0,509.0,518.0,518.0,518.0,518.0,518.0,518.0,518.0,518.0,518.0,518.0,518.0,513.0,513.0,513.0,513.0,502.0,502.0,502.0,502.0,502.0,498.0,498.0,498.0,498.0,498.0,498.0,498.0,498.0,498.0,498.0,498.0,499.0,499.0,499.0,499.0,511.0,511.0,511.0,511.0,511.0,510.0,510.0,510.0,510.0,510.0,510.0,510.0,510.0,510.0,510.0,510.0,510.0,510.0,510.0,510.0,509.0,498.0,510.0,500,500,500,513.7333333333333,498.3,511.56666666666666
0,2.0,11.0,3.0,513.0,510.0,513.0,513.0,513.0,513.0,513.0,513.0,513.0,513.0,513.0,511.0,511.0,511.0,511.0,511.0,511.0,511.0,511.0,511.0,511.0,511.0,511.0,499.0,499.0,499.0,499.0,499.0,499.0,499.0,499.0,510.0,510.0,510.0,510.0,510.0,510.0,510.0,510.0,510.0,510.0,510.0,510.0,510.0,510.0,510.0,510.0,510.0,510.0,510.0,510.0,513.0,513.0,513.0,513.0,513.0,513.0,513.0,513.0,513.0,513.0,513.0,513.0,511.0,499.0,510.0,500,500,500,512.2,503.4,511.2
0,2.0,11.0,3.0,511.0,510.0,513.0,511.0,511.0,511.0,511.0,511.0,511.0,511.0,511.0,511.0,511.0,511.0,511.0,511.0,511.0,511.0,511.0,511.0,501.0,501.0,501.0,510.0,510.0,510.0,510.0,510.0,510.0,510.0,510.0,510.0,510.0,510.0,510.0,510.0,510.0,510.0,510.0,508.0,508.0,508.0,508.0,513.0,513.0,513.0,513.0,513.0,513.0,513.0,513.0,513.0,513.0,513.0,513.0,513.0,513.0,513.0,513.0,513.0,513.0,513.0,513.0,511.0,510.0,513.0,500,500,500,511.53333333333336,507.06666666666666,512.3
0,10.0,2.0,0.0,511.0,510.0,513.0,511.0,511.0,511.0,511.0,511.0,501.0,501.0,501.0,501.0,501.0,501.0,501.0,501.0,501.0,501.0,501.0,501.0,501.0,501.0,501.0,510.0,510.0,510.0,510.0,510.0,508.0,508.0,508.0,508.0,508.0,508.0,508.0,508.0,508.0,508.0,508.0,508.0,508.0,508.0,508.0,513.0,513.0,513.0,513.0,513.0,513.0,513.0,513.0,513.0,513.0,513.0,513.0,513.0,513.0,513.0,513.0,513.0,513.0,513.0,513.0,501.0,508.0,513.0,500,500,500,506.3333333333333,509.06666666666666,513.0
0,6.0,11.0,11.0,501.0,519.0,514.0,501.0,501.0,501.0,501.0,501.0,495.0,495.0,495.0,495.0,495.0,495.0,495.0,495.0,495.0,495.0,495.0,495.0,495.0,495.0,495.0,519.0,519.0,519.0,519.0,519.0,511.0,511.0,511.0,511.0,511.0,511.0,511.0,511.0,511.0,511.0,511.0,511.0,511.0,511.0,511.0,503.0,503.0,503.0,503.0,503.0,514.0,514.0,514.0,514.0,514.0,514.0,514.0,514.0,514.0,514.0,514.0,514.0,514.0,514.0,514.0,495.0,508.0,503.0,500,500,500,498.4,511.5,511.43333333333334
0,1.0,17.0,9.0,496.0,525.0,514.0,495.0,495.0,495.0,495.0,495.0,495.0,495.0,495.0,496.0,496.0,496.0,496.0,496.0,496.0,496.0,496.0,496.0,496.0,496.0,496.0,511.0,525.0,525.0,525.0,525.0,525.0,525.0,525.0,508.0,508.0,508.0,508.0,508.0,508.0,508.0,508.0,508.0,508.0,508.0,508.0,514.0,505.0,505.0,505.0,505.0,505.0,505.0,505.0,505.0,505.0,505.0,505.0,505.0,505.0,505.0,505.0,505.0,505.0,505.0,505.0,495.0,508.0,505.0,500,500,500,495.3333333333333,513.7333333333333,508.6
0,2.0,17.0,1.0,497.0,513.0,506.0,496.0,496.0,496.0,496.0,496.0,496.0,496.0,496.0,496.0,496.0,496.0,496.0,496.0,497.0,497.0,497.0,497.0,497.0,497.0,497.0,508.0,508.0,508.0,508.0,508.0,508.0,508.0,508.0,508.0,508.0,508.0,508.0,508.0,513.0,513.0,513.0,513.0,513.0,513.0,513.0,505.0,505.0,505.0,505.0,505.0,505.0,505.0,505.0,505.0,505.0,505.0,505.0,505.0,506.0,506.0,506.0,506.0,506.0,506.0,506.0,496.0,508.0,505.0,500,500,500,496.2,509.73333333333335,505.23333333333335
0,2.0,5.0,5.0,498.0,513.0,506.0,496.0,496.0,496.0,496.0,497.0,497.0,497.0,497.0,497.0,497.0,497.0,497.0,497.0,497.0,497.0,497.0,497.0,497.0,498.0,498.0,508.0,508.0,508.0,508.0,513.0,513.0,513.0,513.0,513.0,513.0,513.0,513.0,513.0,513.0,513.0,513.0,513.0,513.0,508.0,508.0,505.0,505.0,505.0,505.0,506.0,506.0,506.0,506.0,506.0,506.0,506.0,506.0,506.0,506.0,506.0,506.0,506.0,506.0,501.0,501.0,496.0,508.0,501.0,500,500,500,496.56666666666666,510.5,505.3666666666667
0,5.0,7.0,12.0,502.0,515.0,513.0,497.0,497.0,498.0,498.0,498.0,498.0,498.0,498.0,498.0,498.0,498.0,498.0,498.0,502.0,502.0,502.0,502.0,502.0,502.0,502.0,513.0,513.0,508.0,508.0,508.0,508.0,508.0,508.0,508.0,508.0,508.0,508.0,508.0,515.0,515.0,515.0,515.0,515.0,515.0,515.0,506.0,506.0,501.0,501.0,501.0,501.0,501.0,501.0,501.0,501.0,501.0,501.0,501.0,513.0,513.0,513.0,513.0,513.0,513.0,513.0,497.0,508.0,501.0,500,500,500,498.4,511.4,505.4
0,5.0,7.0,12.0,502.0,515.0,513.0,498.0,498.0,498.0,502.0,502.0,502.0,502.0,502.0,502.0,502.0,502.0,502.0,502.0,502.0,502.0,502.0,502.0,502.0,502.0,502.0,508.0,508.0,508.0,515.0,515.0,515.0,515.0,515.0,515.0,515.0,515.0,515.0,515.0,515.0,515.0,515.0,515.0,515.0,515.0,515.0,501.0,501.0,501.0,513.0,513.0,513.0,513.0,513.0,513.0,513.0,513.0,513.0,513.0,513.0,513.0,513.0,513.0,513.0,513.0,513.0,498.0,508.0,501.0,500,500,500,500.06666666666666,512.0666666666667,507.73333333333335
0,3.0,1.0,5.0,505.0,516.0,513.0,502.0,502.0,502.0,502.0,502.0,502.0,502.0,502.0,505.0,505.0,505.0,505.0,505.0,505.0,505.0,505.0,505.0,505.0,505.0,505.0,515.0,515.0,515.0,515.0,515.0,515.0,515.0,515.0,516.0,516.0,516.0,516.0,516.0,516.0,516.0,516.0,516.0,516.0,516.0,516.0,513.0,513.0,513.0,513.0,513.0,513.0,513.0,513.0,508.0,508.0,508.0,508.0,508.0,508.0,508.0,508.0,508.0,508.0,508.0,508.0,502.0,515.0,508.0,500,500,500,503.2,515.4,511.0
0,15.0,14.0,5.0,517.0,516.0,513.0,505.0,505.0,505.0,505.0,505.0,505.0,505.0,505.0,505.0,505.0,505.0,505.0,511.0,511.0,511.0,511.0,511.0,511.0,511.0,517.0,516.0,516.0,516.0,516.0,516.0,516.0,516.0,516.0,516.0,516.0,516.0,516.0,512.0,512.0,512.0,512.0,512.0,512.0,512.0,502.0,508.0,508.0,508.0,508.0,508.0,508.0,508.0,508.0,508.0,508.0,508.0,508.0,513.0,513.0,513.0,513.0,513.0,513.0,513.0,509.0,505.0,502.0,508.0,500,500,500,506.1,514.3666666666667,510.3666666666667
0,12.0,14.0,5.0,517.0,516.0,513.0,505.0,505.0,505.0,511.0,511.0,511.0,511.0,511.0,511.0,517.0,517.0,517.0,517.0,517.0,517.0,517.0,517.0,517.0,515.0,515.0,516.0,516.0,516.0,512.0,512.0,512.0,512.0,512.0,512.0,502.0,502.0,502.0,502.0,502.0,502.0,502.0,502.0,502.0,507.0,507.0,508.0,508.0,513.0,513.0,513.0,513.0,513.0,513.0,513.0,509.0,509.0,509.0,509.0,509.0,509.0,509.0,509.0,509.0,505.0,505.0,505.0,502.0,508.0,500,500,500,510.0,510.8666666666667,509.46666666666664
0,6.0,13.0,11.0,517.0,507.0,509.0,517.0,517.0,517.0,517.0,515.0,515.0,515.0,515.0,515.0,515.0,515.0,515.0,515.0,515.0,515.0,515.0,514.0,514.0,514.0,514.0,502.0,502.0,502.0,502.0,507.0,507.0,507.0,507.0,507.0,507.0,507.0,507.0,507.0,507.0,507.0,507.0,499.0,499.0,499.0,499.0,509.0,509.0,509.0,509.0,505.0,505.0,505.0,505.0,505.0,505.0,505.0,505.0,505.0,505.0,505.0,505.0,502.0,502.0,502.0,502.0,514.0,499.0,502.0,500,500,500,514.9333333333333,505.6333333333333,507.46666666666664
0,5.0,16.0,7.0,519.0,507.0,505.0,515.0,515.0,515.0,515.0,515.0,515.0,514.0,514.0,514.0,514.0,514.0,514.0,514.0,514.0,519.0,519.0,519.0,519.0,519.0,519.0,507.0,507.0,507.0,507.0,507.0,499.0,499.0,499.0,499.0,499.0,499.0,499.0,499.0,499.0,491.0,491.0,491.0,491.0,491.0,491.0,505.0,505.0,505.0,505.0,505.0,502.0,502.0,502.0,502.0,502.0,502.0,502.0,502.0,502.0,503.0,503.0,503.0,503.0,503.0,503.0,514.0,491.0,502.0,500,500,500,515.4,501.7,504.1333333333333
0,6.0,14.0,3.0,520.0,505.0,505.0,519.0,519.0,519.0,519.0,519.0,519.0,519.0,519.0,519.0,519.0,520.0,520.0,520.0,520.0,520.0,520.0,520.0,520.0,520.0,520.0,491.0,491.0,491.0,491.0,491.0,491.0,491.0,491.0,491.0,491.0,505.0,505.0,505.0,505.0,505.0,505.0,505.0,505.0,505.0,505.0,503.0,503.0,503.0,503.0,503.0,503.0,503.0,503.0,503.0,503.0,505.0,505.0,505.0,505.0,505.0,505.0,505.0,505.0,505.0,505.0,519.0,491.0,503.0,500,500,500,518.3,496.8,503.4
0,1.0,14.0,8.0,520.0,505.0,505.0,520.0,520.0,520.0,520.0,520.0,520.0,520.0,520.0,520.0,520.0,520.0,520.0,520.0,520.0,520.0,519.0,519.0,519.0,519.0,519.0,505.0,505.0,505.0,505.0,505.0,505.0,505.0,505.0,505.0,505.0,505.0,505.0,505.0,505.0,505.0,504.0,504.0,504.0,504.0,504.0,505.0,505.0,505.0,505.0,505.0,505.0,505.0,505.0,505.0,505.0,505.0,505.0,505.0,505.0,505.0,497.0,497.0,497.0,497.0,497.0,519.0,504.0,497.0,500,500,500,519.7,502.96666666666664,503.4
0,1.0,5.0,16.0,519.0,509.0,513.0,519.0,519.0,519.0,519.0,519.0,519.0,519.0,519.0,519.0,519.0,519.0,519.0,519.0,519.0,519.0,519.0,519.0,519.0,519.0,519.0,504.0,504.0,504.0,504.0,504.0,504.0,504.0,504.0,504.0,504.0,504.0,504.0,504.0,504.0,504.0,509.0,509.0,509.0,509.0,509.0,497.0,497.0,497.0,497.0,497.0,497.0,497.0,497.0,497.0,497.0,497.0,497.0,497.0,497.0,497.0,513.0,513.0,513.0,513.0,513.0,519.0,504.0,497.0,500,500,500,519.3333333333334,505.0,501.8
0,5.0,6.0,23.0,519.0,509.0,520.0,519.0,519.0,519.0,519.0,519.0,519.0,514.0,514.0,514.0,514.0,514.0,514.0,514.0,514.0,514.0,514.0,514.0,514.0,514.0,514.0,509.0,509.0,509.0,509.0,509.0,509.0,503.0,503.0,503.0,503.0,503.0,503.0,503.0,503.0,503.0,503.0,503.0,503.0,503.0,503.0,513.0,513.0,513.0,513.0,513.0,513.0,520.0,520.0,520.0,520.0,520.0,520.0,520.0,520.0,520.0,520.0,520.0,520.0,520.0,520.0,514.0,503.0,513.0,500,500,500,516.8333333333334,505.73333333333335,513.9
0,6.0,21.0,26.0,516.0,503.0,520.0,514.0,514.0,514.0,514.0,514.0,514.0,514.0,514.0,514.0,514.0,514.0,514.0,516.0,516.0,516.0,516.0,516.0,516.0,513.0,513.0,503.0,503.0,503.0,503.0,503.0,503.0,503.0,503.0,503.0,503.0,503.0,503.0,488.0,488.0,488.0,488.0,488.0,488.0,498.0,498.0,520.0,520.0,520.0,520.0,520.0,520.0,520.0,520.0,520.0,520.0,520.0,520.0,505.0,505.0,505.0,505.0,505.0,505.0,494.0,494.0,513.0,488.0,494.0,500,500,500,514.6666666666666,500.06666666666666,514.8
0,3.0,15.0,26.0,516.0,503.0,520.0,514.0,514.0,514.0,514.0,514.0,514.0,516.0,516.0,516.0,516.0,516.0,516.0,513.0,513.0,513.0,513.0,513.0,515.0,515.0,515.0,503.0,503.0,503.0,503.0,503.0,503.0,488.0,488.0,488.0,488.0,488.0,488.0,498.0,498.0,498.0,498.0,498.0,500.0,500.0,500.0,520.0,520.0,520.0,520.0,520.0,520.0,505.0,505.0,505.0,505.0,505.0,505.0,494.0,494.0,494.0,494.0,494.0,510.0,510.0,510.0,513.0,488.0,494.0,500,500,500,514.1666666666666,498.8333333333333,510.93333333333334
0,6.0,27.0,26.0,516.0,515.0,510.0,516.0,513.0,513.0,513.0,513.0,513.0,513.0,513.0,513.0,515.0,515.0,515.0,515.0,515.0,515.0,515.0,515.0,510.0,510.0,510.0,488.0,498.0,498.0,498.0,498.0,498.0,498.0,498.0,498.0,500.0,500.0,500.0,500.0,500.0,500.0,500.0,500.0,515.0,515.0,515.0,505.0,494.0,494.0,494.0,494.0,494.0,494.0,494.0,494.0,510.0,510.0,510.0,510.0,510.0,510.0,510.0,510.0,507.0,507.0,507.0,510.0,488.0,494.0,500,500,500,514.1666666666666,498.56666666666666,506.2
0,10.0,15.0,6.0,510.0,515.0,507.0,510.0,510.0,510.0,510.0,510.0,505.0,505.0,505.0,505.0,505.0,505.0,505.0,505.0,505.0,505.0,505.0,505.0,505.0,505.0,505.0,515.0,515.0,515.0,515.0,515.0,510.0,510.0,510.0,510.0,510.0,510.0,510.0,510.0,510.0,510.0,510.0,510.0,510.0,510.0,510.0,507.0,507.0,507.0,507.0,507.0,504.0,504.0,504.0,504.0,504.0,504.0,504.0,504.0,504.0,504.0,504.0,504.0,504.0,504.0,504.0,505.0,510.0,504.0,500,500,500,508.0,511.6666666666667,505.8
0,10.0,11.0,10.0,505.0,521.0,514.0,505.0,505.0,505.0,505.0,505.0,505.0,499.0,499.0,499.0,499.0,495.0,495.0,495.0,495.0,495.0,495.0,495.0,495.0,495.0,495.0,510.0,510.0,510.0,510.0,510.0,510.0,510.0,510.0,510.0,510.0,521.0,521.0,521.0,521.0,521.0,521.0,521.0,521.0,521.0,521.0,504.0,504.0,504.0,504.0,504.0,504.0,508.0,508.0,508.0,514.0,514.0,514.0,514.0,514.0,514.0,514.0,514.0,514.0,514.0,514.0,495.0,510.0,504.0,500,500,500,501.2,513.3,507.53333333333336
0,4.0,13.0,7.0,495.0,521.0,514.0,495.0,495.0,495.0,495.0,495.0,495.0,495.0,495.0,495.0,495.0,495.0,495.0,495.0,495.0,495.0,495.0,495.0,495.0,495.0,495.0,521.0,521.0,521.0,521.0,521.0,521.0,521.0,521.0,521.0,521.0,521.0,521.0,521.0,521.0,521.0,521.0,508.0,508.0,508.0,508.0,514.0,514.0,514.0,514.0,514.0,514.0,514.0,514.0,514.0,514.0,514.0,514.0,514.0,514.0,514.0,514.0,507.0,507.0,507.0,507.0,495.0,508.0,507.0,500,500,500,495.53333333333336,518.6666666666666,512.7333333333333
0,7.0,27.0,8.0,495.0,535.0,507.0,495.0,495.0,495.0,495.0,495.0,488.0,488.0,488.0,488.0,488.0,488.0,488.0,488.0,488.0,488.0,488.0,488.0,488.0,488.0,488.0,508.0,508.0,508.0,508.0,508.0,535.0,535.0,535.0,535.0,535.0,535.0,535.0,535.0,535.0,535.0,535.0,535.0,535.0,535.0,535.0,507.0,507.0,507.0,507.0,507.0,506.0,506.0,506.0,506.0,506.0,506.0,506.0,506.0,506.0,506.0,506.0,506.0,506.0,506.0,506.0,488.0,508.0,506.0,500,500,500,491.5,522.8,507.2
0,6.0,25.0,2.0,494.0,535.0,506.0,488.0,488.0,488.0,488.0,488.0,488.0,488.0,488.0,488.0,488.0,488.0,488.0,494.0,494.0,494.0,494.0,494.0,494.0,494.0,494.0,535.0,535.0,535.0,535.0,535.0,535.0,535.0,535.0,535.0,535.0,535.0,535.0,510.0,510.0,510.0,510.0,510.0,510.0,510.0,510.0,506.0,506.0,506.0,506.0,506.0,506.0,506.0,506.0,506.0,506.0,506.0,506.0,504.0,504.0,504.0,504.0,504.0,504.0,504.0,504.0,488.0,510.0,504.0,500,500,500,489.4,529.1666666666666,505.53333333333336
0,6.0,25.0,5.0,494.0,519.0,509.0,494.0,494.0,494.0,494.0,494.0,494.0,494.0,494.0,494.0,494.0,494.0,494.0,494.0,494.0,493.0,493.0,493.0,493.0,493.0,493.0,510.0,510.0,510.0,510.0,510.0,510.0,510.0,510.0,510.0,510.0,510.0,510.0,510.0,510.0,519.0,519.0,519.0,519.0,519.0,519.0,504.0,504.0,504.0,504.0,504.0,504.0,504.0,504.0,504.0,504.0,504.0,504.0,504.0,504.0,509.0,509.0,509.0,509.0,509.0,509.0,493.0,510.0,504.0,500,500,500,492.8,515.9666666666667,505.3333333333333
0,3.0,14.0,20.0,496.0,524.0,509.0,494.0,494.0,494.0,494.0,493.0,493.0,493.0,493.0,493.0,493.0,493.0,493.0,493.0,493.0,493.0,493.0,493.0,493.0,496.0,496.0,510.0,510.0,510.0,510.0,519.0,519.0,519.0,519.0,519.0,519.0,519.0,519.0,519.0,519.0,519.0,519.0,519.0,519.0,524.0,524.0,504.0,504.0,504.0,504.0,509.0,509.0,509.0,509.0,509.0,509.0,509.0,509.0,509.0,509.0,509.0,509.0,509.0,509.0,489.0,489.0,493.0,510.0,489.0,500,500,500,493.56666666666666,514.9666666666667,506.0
0,9.0,14.0,20.0,502.0,524.0,509.0,493.0,493.0,493.0,493.0,493.0,493.0,493.0,493.0,496.0,496.0,496.0,496.0,496.0,496.0,496.0,496.0,496.0,496.0,496.0,502.0,519.0,519.0,519.0,519.0,519.0,519.0,519.0,519.0,524.0,524.0,524.0,524.0,524.0,524.0,524.0,524.0,524.0,524.0,524.0,520.0,509.0,509.0,509.0,509.0,509.0,509.0,509.0,509.0,489.0,489.0,489.0,489.0,489.0,489.0,489.0,489.0,489.0,489.0,489.0,496.0,493.0,519.0,489.0,500,500,500,494.5,519.9666666666667,500.73333333333335
0,15.0,23.0,20.0,508.0,524.0,503.0,496.0,496.0,496.0,496.0,496.0,496.0,502.0,502.0,502.0,502.0,502.0,502.0,502.0,502.0,502.0,508.0,508.0,508.0,508.0,508.0,524.0,524.0,524.0,524.0,524.0,524.0,520.0,520.0,520.0,520.0,520.0,520.0,520.0,520.0,520.0,501.0,501.0,501.0,501.0,501.0,489.0,489.0,489.0,489.0,489.0,489.0,496.0,496.0,496.0,496.0,496.0,496.0,496.0,496.0,496.0,503.0,503.0,503.0,503.0,503.0,496.0,501.0,489.0,500,500,500,499.1,518.7666666666667,496.53333333333336
0,16.0,23.0,30.0,512.0,520.0,519.0,502.0,502.0,508.0,508.0,508.0,508.0,508.0,508.0,508.0,508.0,508.0,508.0,508.0,508.0,508.0,508.0,508.0,512.0,512.0,512.0,520.0,520.0,501.0,501.0,501.0,501.0,501.0,501.0,501.0,501.0,501.0,501.0,501.0,501.0,501.0,501.0,501.0,514.0,514.0,514.0,496.0,496.0,503.0,503.0,503.0,503.0,503.0,503.0,503.0,503.0,503.0,503.0,503.0,503.0,503.0,503.0,503.0,519.0,519.0,519.0,502.0,501.0,496.0,500,500,500,505.6,510.1666666666667,501.3333333333333
0,4.0,13.0,19.0,512.0,514.0,519.0,512.0,512.0,512.0,512.0,512.0,512.0,511.0,511.0,511.0,511.0,511.0,511.0,511.0,511.0,511.0,511.0,511.0,511.0,516.0,516.0,514.0,514.0,514.0,514.0,514.0,514.0,504.0,504.0,504.0,504.0,504.0,504.0,504.0,504.0,504.0,504.0,504.0,504.0,495.0,495.0,519.0,519.0,519.0,519.0,519.0,519.0,500.0,500.0,500.0,500.0,500.0,500.0,500.0,500.0,500.0,500.0,500.0,500.0,526.0,526.0,511.0,504.0,500.0,500,500,500,510.5,506.2,506.5
0,7.0,9.0,26.0,518.0,500.0,526.0,516.0,516.0,516.0,516.0,516.0,516.0,516.0,516.0,518.0,518.0,518.0,518.0,518.0,518.0,518.0,518.0,518.0,518.0,518.0,518.0,495.0,495.0,495.0,495.0,495.0,495.0,495.0,495.0,500.0,500.0,500.0,500.0,500.0,500.0,500.0,500.0,500.0,500.0,500.0,500.0,526.0,526.0,526.0,526.0,526.0,526.0,526.0,526.0,523.0,523.0,523.0,523.0,523.0,523.0,523.0,523.0,523.0,523.0,523.0,523.0,516.0,495.0,523.0,500,500,500,516.3,497.9,522.2
0,6.0,2.0,21.0,524.0,500.0,523.0,518.0,518.0,518.0,518.0,518.0,523.0,523.0,523.0,523.0,524.0,524.0,524.0,524.0,524.0,524.0,524.0,524.0,524.0,524.0,524.0,500.0,500.0,500.0,500.0,500.0,498.0,498.0,498.0,498.0,500.0,500.0,500.0,500.0,500.0,500.0,500.0,500.0,500.0,500.0,500.0,523.0,523.0,523.0,523.0,523.0,520.0,520.0,520.0,520.0,502.0,502.0,502.0,502.0,502.0,502.0,502.0,502.0,502.0,502.0,502.0,518.0,498.0,502.0,500,500,500,520.4666666666667,499.73333333333335,516.3
0,2.0,14.0,14.0,524.0,500.0,516.0,524.0,524.0,524.0,524.0,524.0,524.0,524.0,524.0,524.0,524.0,524.0,522.0,522.0,522.0,522.0,522.0,522.0,522.0,522.0,522.0,500.0,500.0,500.0,500.0,500.0,500.0,500.0,500.0,500.0,500.0,500.0,486.0,486.0,486.0,486.0,486.0,486.0,486.0,486.0,486.0,502.0,502.0,502.0,502.0,502.0,502.0,502.0,502.0,502.0,502.0,502.0,516.0,516.0,516.0,516.0,516.0,516.0,516.0,516.0,516.0,522.0,486.0,502.0,500,500,500,523.4666666666667,496.26666666666665,505.73333333333335
0,6.0,25.0,14.0,528.0,511.0,516.0,522.0,522.0,522.0,522.0,522.0,522.0,522.0,528.0,528.0,528.0,528.0,528.0,528.0,528.0,528.0,528.0,528.0,528.0,528.0,528.0,486.0,486.0,486.0,486.0,486.0,486.0,486.0,511.0,511.0,511.0,511.0,511.0,511.0,511.0,511.0,511.0,511.0,511.0,511.0,511.0,516.0,516.0,516.0,516.0,516.0,516.0,516.0,508.0,508.0,508.0,508.0,508.0,508.0,508.0,508.0,508.0,508.0,508.0,508.0,508.0,522.0,486.0,508.0,500,500,500,524.0,495.6333333333333,512.6
0,12.0,34.0,6.0,517.0,508.0,503.0,517.0,517.0,517.0,517.0,517.0,517.0,516.0,516.0,516.0,516.0,516.0,516.0,516.0,516.0,516.0,516.0,516.0,516.0,516.0,516.0,508.0,508.0,508.0,508.0,508.0,508.0,477.0,477.0,477.0,477.0,477.0,477.0,477.0,477.0,477.0,477.0,477.0,477.0,477.0,477.0,503.0,503.0,503.0,503.0,503.0,503.0,502.0,502.0,502.0,502.0,502.0,502.0,502.0,502.0,502.0,502.0,502.0,502.0,502.0,502.0,516.0,477.0,502.0,500,500,500,519.9,496.5,503.7
0,3.0,3.0,14.0,517.0,480.0,516.0,517.0,517.0,517.0,517.0,517.0,517.0,517.0,517.0,514.0,514.0,514.0,514.0,514.0,514.0,514.0,514.0,514.0,514.0,514.0,514.0,480.0,480.0,480.0,480.0,480.0,480.0,480.0,480.0,479.0,479.0,479.0,479.0,479.0,479.0,479.0,479.0,479.0,479.0,479.0,479.0,516.0,516.0,516.0,516.0,516.0,516.0,516.0,516.0,511.0,511.0,511.0,511.0,511.0,511.0,511.0,511.0,511.0,511.0,511.0,511.0,514.0,479.0,511.0,500,500,500,515.5333333333333,478.8,510.26666666666665
0,6.0,10.0,8.0,514.0,492.0,511.0,514.0,514.0,514.0,514.0,514.0,514.0,514.0,514.0,514.0,514.0,514.0,514.0,511.0,511.0,511.0,511.0,504.0,504.0,504.0,504.0,479.0,479.0,479.0,479.0,479.0,479.0,479.0,479.0,479.0,479.0,479.0,479.0,489.0,489.0,489.0,489.0,492.0,492.0,492.0,492.0,511.0,511.0,511.0,511.0,511.0,511.0,511.0,511.0,511.0,511.0,511.0,511.0,508.0,508.0,508.0,508.0,511.0,511.0,511.0,511.0,504.0,479.0,508.0,500,500,500,514.1,480.8666666666667,511.3333333333333
0,12.0,13.0,10.0,504.0,502.0,511.0,504.0,504.0,504.0,504.0,504.0,504.0,504.0,504.0,504.0,504.0,504.0,504.0,499.0,499.0,499.0,499.0,499.0,499.0,499.0,499.0,492.0,492.0,492.0,492.0,492.0,492.0,492.0,492.0,492.0,492.0,492.0,492.0,502.0,502.0,502.0,502.0,502.0,502.0,502.0,502.0,511.0,511.0,511.0,511.0,511.0,511.0,511.0,511.0,511.0,511.0,511.0,511.0,501.0,501.0,501.0,501.0,501.0,501.0,501.0,501.0,499.0,492.0,501.0,500,500,500,503.53333333333336,494.03333333333336,508.3666666666667
0,4.0,16.0,13.0,499.0,517.0,504.0,499.0,499.0,499.0,499.0,499.0,496.0,496.0,496.0,496.0,496.0,496.0,496.0,496.0,496.0,495.0,495.0,495.0,495.0,495.0,495.0,502.0,502.0,502.0,502.0,502.0,517.0,517.0,517.0,517.0,517.0,517.0,517.0,517.0,517.0,501.0,501.0,501.0,501.0,501.0,501.0,501.0,501.0,501.0,501.0,501.0,504.0,504.0,504.0,504.0,504.0,504.0,504.0,504.0,504.0,491.0,491.0,491.0,491.0,491.0,491.0,495.0,501.0,491.0,500,500,500,497.3333333333333,506.8333333333333,500.3333333333333
0,1.0,44.0,15.0,495.0,545.0,506.0,495.0,495.0,495.0,495.0,495.0,495.0,495.0,495.0,495.0,495.0,494.0,494.0,494.0,494.0,494.0,494.0,494.0,494.0,494.0,494.0,501.0,501.0,501.0,501.0,501.0,501.0,501.0,501.0,501.0,501.0,545.0,545.0,545.0,545.0,545.0,545.0,545.0,545.0,545.0,545.0,491.0,491.0,491.0,491.0,491.0,491.0,491.0,491.0,491.0,491.0,506.0,506.0,506.0,506.0,506.0,506.0,506.0,506.0,506.0,506.0,494.0,501.0,491.0,500,500,500,494.73333333333335,512.7333333333333,495.0
0,5.0,40.0,8.0,499.0,545.0,506.0,498.0,498.0,498.0,498.0,498.0,498.0,498.0,498.0,498.0,498.0,499.0,499.0,499.0,499.0,499.0,499.0,499.0,499.0,499.0,499.0,509.0,509.0,509.0,509.0,509.0,509.0,509.0,509.0,509.0,509.0,505.0,505.0,505.0,505.0,505.0,505.0,505.0,505.0,505.0,505.0,500.0,500.0,500.0,500.0,500.0,500.0,500.0,500.0,500.0,498.0,498.0,498.0,498.0,498.0,498.0,498.0,498.0,498.0,498.0,498.0,494.0,505.0,498.0,500,500,500,496.76666666666665,521.2666666666667,501.73333333333335
0,8.0,21.0,8.0,507.0,526.0,506.0,503.0,503.0,507.0,507.0,507.0,507.0,507.0,507.0,507.0,507.0,507.0,507.0,507.0,507.0,507.0,507.0,507.0,507.0,507.0,507.0,526.0,526.0,514.0,514.0,514.0,514.0,514.0,514.0,514.0,514.0,514.0,514.0,514.0,514.0,514.0,514.0,514.0,514.0,514.0,514.0,502.0,502.0,506.0,506.0,506.0,506.0,506.0,506.0,506.0,506.0,506.0,506.0,506.0,506.0,506.0,506.0,506.0,506.0,506.0,506.0,503.0,514.0,502.0,500,500,500,504.8666666666667,517.1,503.8666666666667
0,7.0,16.0,7.0,514.0,500.0,503.0,509.0,509.0,509.0,509.0,509.0,509.0,509.0,509.0,509.0,514.0,514.0,514.0,514.0,514.0,514.0,514.0,514.0,514.0,514.0,514.0,500.0,500.0,500.0,500.0,500.0,500.0,500.0,500.0,500.0,498.0,498.0,498.0,498.0,498.0,498.0,498.0,498.0,498.0,498.0,498.0,503.0,503.0,503.0,503.0,503.0,503.0,503.0,503.0,503.0,499.0,499.0,499.0,499.0,499.0,499.0,499.0,499.0,499.0,499.0,499.0,509.0,498.0,499.0,500,500,500,510.6333333333333,500.6666666666667,501.8333333333333
0,11.0,26.0,26.0,522.0,524.0,525.0,514.0,514.0,514.0,514.0,514.0,511.0,511.0,511.0,511.0,511.0,511.0,511.0,522.0,522.0,522.0,522.0,522.0,522.0,522.0,522.0,498.0,498.0,498.0,498.0,498.0,524.0,524.0,524.0,524.0,524.0,524.0,524.0,517.0,517.0,517.0,517.0,517.0,517.0,517.0,517.0,499.0,499.0,499.0,499.0,499.0,525.0,525.0,525.0,525.0,525.0,525.0,525.0,513.0,513.0,513.0,513.0,513.0,513.0,513.0,513.0,511.0,498.0,499.0,500,500,500,514.7,509.6,509.6
0,11.0,16.0,12.0,522.0,517.0,513.0,522.0,522.0,522.0,522.0,522.0,522.0,522.0,522.0,522.0,522.0,522.0,522.0,522.0,522.0,522.0,522.0,522.0,522.0,522.0,522.0,517.0,517.0,517.0,517.0,517.0,517.0,517.0,517.0,517.0,517.0,517.0,517.0,517.0,517.0,508.0,508.0,508.0,508.0,508.0,508.0,513.0,513.0,513.0,513.0,513.0,513.0,513.0,513.0,513.0,513.0,513.0,513.0,513.0,513.0,513.0,513.0,513.0,513.0,513.0,513.0,522.0,508.0,513.0,500,500,500,519.8,517.5,515.4
0,2.0,5.0,1.0,522.0,513.0,513.0,522.0,522.0,522.0,522.0,522.0,522.0,522.0,522.0,522.0,520.0,520.0,520.0,520.0,520.0,520.0,520.0,520.0,520.0,520.0,520.0,508.0,508.0,508.0,508.0,508.0,508.0,508.0,508.0,508.0,513.0,513.0,513.0,513.0,513.0,513.0,513.0,513.0,513.0,513.0,513.0,513.0,513.0,513.0,513.0,513.0,513.0,513.0,513.0,513.0,512.0,512.0,512.0,512.0,512.0,512.0,512.0,512.0,512.0,512.0,512.0,520.0,508.0,512.0,500,500,500,521.2666666666667,509.8333333333333,512.6333333333333
0,3.0,29.0,8.0,522.0,513.0,520.0,520.0,520.0,520.0,520.0,522.0,522.0,522.0,522.0,522.0,522.0,522.0,519.0,519.0,519.0,519.0,519.0,519.0,519.0,519.0,519.0,513.0,513.0,513.0,513.0,496.0,496.0,496.0,496.0,496.0,496.0,496.0,484.0,484.0,484.0,484.0,484.0,484.0,484.0,484.0,484.0,512.0,512.0,512.0,512.0,520.0,520.0,520.0,520.0,520.0,520.0,520.0,516.0,516.0,516.0,516.0,516.0,516.0,516.0,516.0,516.0,519.0,484.0,512.0,500,500,500,520.1666666666666,500.3333333333333,515.0666666666667
0,2.0,6.0,11.0,521.0,490.0,516.0,519.0,519.0,519.0,519.0,519.0,519.0,521.0,521.0,521.0,521.0,521.0,521.0,521.0,520.0,520.0,520.0,520.0,520.0,520.0,520.0,484.0,484.0,484.0,484.0,484.0,484.0,486.0,486.0,486.0,486.0,486.0,486.0,486.0,490.0,490.0,490.0,490.0,490.0,490.0,490.0,516.0,516.0,516.0,516.0,516.0,516.0,505.0,505.0,505.0,505.0,505.0,505.0,505.0,507.0,507.0,507.0,507.0,507.0,507.0,507.0,519.0,484.0,505.0,500,500,500,519.7333333333333,485.73333333333335,511.26666666666665
0,3.0,7.0,6.0,520.0,493.0,507.0,520.0,520.0,520.0,520.0,520.0,520.0,520.0,520.0,520.0,520.0,520.0,520.0,520.0,520.0,520.0,518.0,518.0,518.0,518.0,518.0,490.0,490.0,490.0,490.0,490.0,490.0,490.0,490.0,490.0,490.0,490.0,490.0,490.0,490.0,490.0,493.0,493.0,493.0,493.0,493.0,507.0,507.0,507.0,507.0,507.0,507.0,507.0,507.0,507.0,507.0,507.0,507.0,507.0,507.0,507.0,501.0,501.0,501.0,501.0,501.0,518.0,490.0,501.0,500,500,500,520.0,489.3333333333333,505.6666666666667
0,7.0,26.0,6.0,518.0,516.0,506.0,518.0,518.0,518.0,518.0,518.0,518.0,518.0,518.0,518.0,513.0,513.0,513.0,513.0,513.0,513.0,513.0,513.0,513.0,513.0,513.0,493.0,493.0,493.0,493.0,493.0,493.0,493.0,493.0,493.0,516.0,516.0,516.0,516.0,516.0,516.0,516.0,516.0,516.0,516.0,516.0,501.0,501.0,501.0,501.0,501.0,501.0,501.0,501.0,501.0,506.0,506.0,506.0,506.0,506.0,506.0,506.0,506.0,506.0,506.0,506.0,513.0,493.0,501.0,500,500,500,516.4,500.56666666666666,502.8666666666667
0,11.0,14.0,5.0,508.0,509.0,511.0,508.0,508.0,508.0,508.0,508.0,508.0,508.0,508.0,502.0,502.0,502.0,502.0,502.0,502.0,502.0,502.0,502.0,502.0,502.0,502.0,509.0,509.0,509.0,509.0,509.0,509.0,509.0,509.0,502.0,502.0,502.0,502.0,502.0,502.0,502.0,502.0,502.0,502.0,502.0,502.0,510.0,510.0,510.0,510.0,510.0,510.0,510.0,510.0,511.0,511.0,511.0,511.0,511.0,511.0,511.0,511.0,511.0,511.0,511.0,511.0,502.0,502.0,510.0,500,500,500,507.26666666666665,508.53333333333336,509.06666666666666
0,8.0,9.0,6.0,498.0,511.0,517.0,498.0,498.0,498.0,498.0,498.0,494.0,494.0,494.0,494.0,494.0,494.0,494.0,494.0,494.0,494.0,494.0,494.0,494.0,494.0,494.0,511.0,511.0,511.0,511.0,511.0,509.0,509.0,509.0,509.0,509.0,509.0,509.0,509.0,509.0,509.0,509.0,509.0,509.0,509.0,509.0,517.0,517.0,517.0,517.0,517.0,514.0,514.0,514.0,514.0,514.0,514.0,514.0,514.0,514.0,514.0,514.0,514.0,514.0,514.0,514.0,494.0,509.0,514.0,500,500,500,496.8,508.93333333333334,514.9
0,4.0,26.0,18.0,492.0,532.0,500.0,490.0,490.0,490.0,490.0,490.0,490.0,490.0,490.0,490.0,490.0,490.0,490.0,492.0,492.0,492.0,492.0,492.0,492.0,492.0,492.0,532.0,532.0,532.0,532.0,532.0,532.0,532.0,532.0,532.0,532.0,532.0,532.0,506.0,506.0,506.0,506.0,506.0,506.0,506.0,506.0,496.0,496.0,496.0,496.0,496.0,496.0,496.0,496.0,496.0,496.0,496.0,496.0,500.0,500.0,500.0,500.0,500.0,500.0,500.0,500.0,490.0,506.0,496.0,500,500,500,491.0,522.8666666666667,499.3333333333333
0,2.0,26.0,15.0,492.0,532.0,511.0,490.0,492.0,492.0,492.0,492.0,492.0,492.0,492.0,492.0,492.0,492.0,492.0,492.0,492.0,492.0,492.0,492.0,492.0,492.0,492.0,532.0,506.0,506.0,506.0,506.0,506.0,506.0,506.0,506.0,506.0,506.0,506.0,506.0,506.0,506.0,506.0,506.0,506.0,506.0,524.0,496.0,500.0,500.0,500.0,500.0,500.0,500.0,500.0,500.0,500.0,500.0,500.0,500.0,500.0,500.0,500.0,500.0,500.0,500.0,511.0,490.0,506.0,496.0,500,500,500,491.26666666666665,516.1333333333333,498.9
0,3.0,18.0,16.0,495.0,524.0,516.0,492.0,492.0,492.0,492.0,492.0,492.0,492.0,492.0,495.0,495.0,495.0,495.0,495.0,495.0,495.0,495.0,495.0,495.0,495.0,495.0,524.0,524.0,524.0,524.0,524.0,524.0,524.0,524.0,518.0,518.0,518.0,518.0,518.0,518.0,518.0,518.0,518.0,518.0,518.0,518.0,511.0,511.0,511.0,511.0,511.0,511.0,511.0,511.0,516.0,516.0,516.0,516.0,516.0,516.0,516.0,516.0,516.0,516.0,516.0,516.0,492.0,518.0,511.0,500,500,500,493.1,520.6,512.1
0,8.0,6.0,11.0,503.0,519.0,508.0,498.0,498.0,498.0,498.0,498.0,498.0,498.0,498.0,498.0,498.0,503.0,503.0,503.0,503.0,503.0,503.0,503.0,503.0,503.0,503.0,519.0,519.0,519.0,519.0,519.0,519.0,519.0,519.0,519.0,519.0,513.0,513.0,513.0,513.0,513.0,513.0,513.0,513.0,513.0,513.0,505.0,505.0,505.0,505.0,505.0,505.0,505.0,505.0,505.0,508.0,508.0,508.0,508.0,508.0,508.0,508.0,508.0,508.0,508.0,508.0,498.0,513.0,505.0,500,500,500,498.56666666666666,517.4,507.9
0,8.0,12.0,3.0,511.0,505.0,511.0,504.0,504.0,504.0,504.0,504.0,504.0,511.0,511.0,511.0,511.0,511.0,511.0,511.0,511.0,511.0,511.0,511.0,511.0,511.0,511.0,501.0,501.0,501.0,501.0,501.0,501.0,505.0,505.0,505.0,505.0,505.0,505.0,505.0,505.0,505.0,505.0,505.0,505.0,505.0,505.0,511.0,511.0,511.0,511.0,511.0,511.0,511.0,511.0,511.0,511.0,511.0,511.0,511.0,511.0,511.0,511.0,511.0,511.0,511.0,511.0,504.0,501.0,511.0,500,500,500,506.96666666666664,506.46666666666664,510.1
0,12.0,21.0,9.0,516.0,522.0,511.0,511.0,511.0,511.0,511.0,511.0,511.0,514.0,514.0,514.0,514.0,514.0,514.0,514.0,514.0,514.0,516.0,516.0,516.0,516.0,516.0,505.0,505.0,505.0,505.0,505.0,505.0,522.0,522.0,522.0,522.0,522.0,522.0,522.0,522.0,522.0,510.0,510.0,510.0,510.0,510.0,511.0,511.0,511.0,511.0,511.0,511.0,511.0,511.0,511.0,511.0,511.0,511.0,511.0,511.0,511.0,502.0,502.0,502.0,502.0,502.0,511.0,505.0,502.0,500,500,500,511.46666666666664,510.43333333333334,510.7
0,5.0,7.0,16.0,521.0,510.0,518.0,516.0,516.0,516.0,516.0,516.0,516.0,521.0,521.0,521.0,521.0,521.0,521.0,521.0,521.0,521.0,521.0,521.0,521.0,521.0,521.0,510.0,510.0,510.0,510.0,510.0,510.0,503.0,503.0,503.0,503.0,503.0,503.0,503.0,503.0,503.0,503.0,503.0,503.0,503.0,503.0,502.0,502.0,502.0,502.0,502.0,502.0,518.0,518.0,518.0,518.0,518.0,518.0,518.0,518.0,518.0,518.0,518.0,518.0,518.0,518.0,516.0,503.0,502.0,500,500,500,518.1666666666666,506.96666666666664,508.93333333333334
0,4.0,19.0,25.0,525.0,513.0,518.0,521.0,521.0,521.0,521.0,521.0,525.0,525.0,525.0,525.0,525.0,525.0,525.0,525.0,525.0,525.0,525.0,525.0,525.0,525.0,525.0,503.0,503.0,503.0,503.0,503.0,513.0,513.0,513.0,513.0,513.0,513.0,513.0,513.0,494.0,494.0,494.0,494.0,494.0,494.0,494.0,518.0,518.0,518.0,518.0,518.0,511.0,511.0,511.0,511.0,511.0,511.0,511.0,511.0,493.0,493.0,493.0,493.0,493.0,493.0,493.0,521.0,494.0,493.0,500,500,500,522.7333333333333,504.1666666666667,511.96666666666664
0,1.0,0.0,25.0,525.0,494.0,518.0,525.0,524.0,524.0,524.0,524.0,524.0,524.0,524.0,524.0,524.0,524.0,524.0,524.0,524.0,524.0,524.0,524.0,524.0,524.0,524.0,494.0,494.0,494.0,494.0,494.0,494.0,494.0,494.0,494.0,494.0,494.0,494.0,494.0,494.0,494.0,494.0,494.0,494.0,494.0,494.0,493.0,518.0,518.0,518.0,518.0,518.0,518.0,518.0,518.0,518.0,518.0,518.0,518.0,518.0,518.0,518.0,518.0,518.0,518.0,518.0,524.0,494.0,493.0,500,500,500,524.3666666666667,494.0,508.8333333333333
0,4.0,36.0,18.0,526.0,527.0,518.0,524.0,524.0,524.0,524.0,524.0,524.0,526.0,526.0,526.0,526.0,526.0,526.0,526.0,526.0,526.0,526.0,526.0,522.0,522.0,522.0,494.0,494.0,494.0,494.0,494.0,494.0,491.0,491.0,491.0,491.0,491.0,491.0,491.0,491.0,491.0,491.0,491.0,527.0,527.0,527.0,518.0,518.0,518.0,518.0,518.0,518.0,512.0,512.0,512.0,512.0,512.0,512.0,512.0,512.0,512.0,512.0,512.0,500.0,500.0,500.0,522.0,491.0,500.0,500,500,500,524.5333333333333,496.2,514.0
0,6.0,36.0,14.0,522.0,527.0,514.0,522.0,522.0,522.0,522.0,522.0,522.0,522.0,522.0,522.0,522.0,522.0,522.0,522.0,522.0,522.0,520.0,520.0,520.0,520.0,520.0,527.0,527.0,527.0,527.0,527.0,527.0,527.0,527.0,527.0,527.0,527.0,527.0,527.0,527.0,527.0,514.0,514.0,514.0,514.0,514.0,500.0,500.0,500.0,500.0,500.0,500.0,500.0,500.0,500.0,500.0,500.0,500.0,500.0,500.0,500.0,514.0,514.0,514.0,514.0,514.0,520.0,514.0,500.0,500,500,500,522.4666666666667,517.6333333333333,504.73333333333335
0,2.0,17.0,14.0,520.0,514.0,514.0,520.0,520.0,520.0,520.0,520.0,520.0,520.0,520.0,520.0,520.0,520.0,520.0,520.0,520.0,520.0,520.0,520.0,520.0,520.0,520.0,514.0,514.0,514.0,514.0,514.0,514.0,514.0,514.0,514.0,514.0,514.0,514.0,510.0,510.0,510.0,510.0,510.0,510.0,510.0,510.0,514.0,514.0,514.0,514.0,514.0,514.0,514.0,514.0,514.0,514.0,514.0,514.0,511.0,511.0,511.0,511.0,511.0,511.0,511.0,511.0,520.0,510.0,511.0,500,500,500,520.6666666666666,517.6666666666666,509.2
0,6.0,4.0,9.0,520.0,511.0,511.0,520.0,520.0,520.0,520.0,520.0,520.0,520.0,520.0,520.0,520.0,520.0,520.0,520.0,520.0,514.0,514.0,514.0,514.0,514.0,514.0,510.0,510.0,510.0,510.0,510.0,510.0,510.0,510.0,510.0,510.0,510.0,510.0,510.0,510.0,511.0,511.0,511.0,511.0,511.0,511.0,511.0,511.0,511.0,511.0,511.0,511.0,511.0,511.0,511.0,511.0,511.0,511.0,511.0,511.0,505.0,505.0,505.0,505.0,505.0,505.0,514.0,510.0,505.0,500,500,500,519.4,511.03333333333336,511.1
0,7.0,3.0,7.0,514.0,511.0,505.0,514.0,514.0,514.0,514.0,514.0,514.0,514.0,507.0,507.0,507.0,507.0,507.0,507.0,507.0,507.0,507.0,507.0,507.0,507.0,507.0,511.0,511.0,511.0,511.0,511.0,511.0,511.0,508.0,508.0,508.0,508.0,508.0,508.0,508.0,508.0,508.0,508.0,508.0,508.0,508.0,505.0,505.0,505.0,505.0,505.0,505.0,505.0,498.0,498.0,498.0,498.0,498.0,498.0,498.0,498.0,498.0,498.0,498.0,498.0,498.0,507.0,508.0,498.0,500,500,500,511.2,509.8,502.2
0,14.0,16.0,12.0,507.0,524.0,510.0,507.0,507.0,507.0,507.0,507.0,500.0,500.0,500.0,500.0,500.0,500.0,500.0,500.0,500.0,500.0,500.0,500.0,500.0,500.0,500.0,508.0,508.0,508.0,508.0,508.0,524.0,524.0,524.0,524.0,524.0,524.0,524.0,524.0,524.0,524.0,524.0,524.0,514.0,514.0,514.0,498.0,498.0,498.0,498.0,498.0,510.0,510.0,510.0,510.0,510.0,510.0,510.0,510.0,510.0,510.0,510.0,510.0,506.0,506.0,506.0,500.0,508.0,498.0,500,500,500,504.43333333333334,515.1333333333333,503.6666666666667
0,6.0,19.0,5.0,500.0,533.0,510.0,500.0,500.0,500.0,500.0,500.0,500.0,500.0,500.0,500.0,500.0,500.0,500.0,500.0,500.0,500.0,500.0,500.0,494.0,494.0,494.0,524.0,524.0,514.0,514.0,514.0,514.0,514.0,514.0,514.0,514.0,514.0,514.0,514.0,514.0,514.0,514.0,514.0,533.0,533.0,533.0,510.0,510.0,506.0,506.0,506.0,506.0,506.0,506.0,506.0,506.0,506.0,506.0,506.0,506.0,506.0,506.0,506.0,505.0,505.0,505.0,494.0,514.0,505.0,500,500,500,499.4,519.9,507.5
0,4.0,19.0,10.0,498.0,541.0,515.0,494.0,494.0,494.0,494.0,494.0,494.0,494.0,494.0,494.0,494.0,494.0,494.0,494.0,494.0,494.0,494.0,498.0,498.0,498.0,498.0,541.0,541.0,541.0,541.0,541.0,541.0,541.0,541.0,541.0,541.0,541.0,541.0,541.0,541.0,541.0,541.0,522.0,522.0,522.0,522.0,515.0,515.0,515.0,515.0,515.0,515.0,515.0,515.0,515.0,515.0,515.0,515.0,515.0,515.0,515.0,515.0,515.0,515.0,515.0,515.0,494.0,522.0,515.0,500,500,500,494.26666666666665,537.3333333333334,512.0
0,7.0,20.0,8.0,498.0,542.0,515.0,498.0,498.0,498.0,498.0,498.0,498.0,498.0,498.0,498.0,498.0,498.0,498.0,498.0,491.0,491.0,491.0,491.0,491.0,491.0,491.0,522.0,522.0,522.0,522.0,522.0,522.0,522.0,522.0,522.0,522.0,522.0,522.0,522.0,542.0,542.0,542.0,542.0,542.0,542.0,542.0,515.0,515.0,515.0,515.0,515.0,515.0,515.0,515.0,515.0,515.0,515.0,515.0,515.0,507.0,507.0,507.0,507.0,507.0,507.0,507.0,491.0,522.0,507.0,500,500,500,495.26666666666665,532.3333333333334,513.4
0,11.0,10.0,22.0,502.0,533.0,516.0,497.0,497.0,497.0,497.0,497.0,497.0,497.0,502.0,502.0,502.0,502.0,502.0,502.0,502.0,502.0,502.0,502.0,502.0,502.0,502.0,532.0,532.0,532.0,532.0,532.0,532.0,532.0,533.0,533.0,533.0,533.0,533.0,533.0,533.0,533.0,533.0,533.0,533.0,533.0,533.0,516.0,516.0,516.0,516.0,516.0,516.0,516.0,494.0,494.0,494.0,494.0,494.0,494.0,494.0,494.0,494.0,494.0,494.0,494.0,494.0,497.0,532.0,494.0,500,500,500,497.3666666666667,535.4333333333333,503.76666666666665
0,6.0,10.0,14.0,508.0,535.0,508.0,505.0,505.0,505.0,505.0,505.0,505.0,505.0,505.0,505.0,505.0,505.0,505.0,505.0,505.0,505.0,505.0,505.0,505.0,508.0,508.0,525.0,525.0,525.0,525.0,525.0,525.0,525.0,525.0,525.0,525.0,525.0,525.0,525.0,525.0,525.0,525.0,525.0,525.0,535.0,535.0,497.0,497.0,497.0,497.0,497.0,497.0,497.0,497.0,497.0,497.0,497.0,497.0,497.0,497.0,497.0,497.0,497.0,497.0,508.0,508.0,505.0,525.0,497.0,500,500,500,504.3,528.0666666666667,496.8333333333333
0,9.0,35.0,11.0,514.0,535.0,508.0,508.0,508.0,508.0,508.0,508.0,508.0,508.0,508.0,508.0,508.0,508.0,508.0,508.0,508.0,508.0,508.0,514.0,514.0,514.0,514.0,535.0,535.0,535.0,535.0,535.0,535.0,535.0,535.0,535.0,535.0,535.0,535.0,535.0,535.0,535.0,535.0,500.0,500.0,500.0,500.0,508.0,508.0,508.0,508.0,508.0,508.0,508.0,508.0,508.0,508.0,508.0,508.0,508.0,508.0,508.0,508.0,505.0,505.0,505.0,505.0,508.0,500.0,505.0,500,500,500,507.6,530.0,504.8666666666667
0,5.0,7.0,17.0,519.0,507.0,522.0,514.0,514.0,514.0,514.0,519.0,519.0,519.0,519.0,519.0,519.0,519.0,519.0,519.0,519.0,519.0,519.0,519.0,519.0,519.0,519.0,500.0,500.0,500.0,500.0,507.0,507.0,507.0,507.0,507.0,507.0,507.0,507.0,507.0,507.0,507.0,507.0,507.0,507.0,507.0,507.0,505.0,505.0,505.0,505.0,522.0,522.0,522.0,522.0,522.0,522.0,522.0,522.0,522.0,522.0,522.0,522.0,522.0,522.0,522.0,522.0,514.0,500.0,505.0,500,500,500,516.6666666666666,503.73333333333335,514.0666666666667
0,3.0,5.0,13.0,520.0,503.0,523.0,517.0,517.0,517.0,517.0,520.0,520.0,520.0,520.0,520.0,520.0,520.0,520.0,520.0,520.0,520.0,520.0,520.0,520.0,520.0,520.0,503.0,503.0,503.0,503.0,502.0,502.0,502.0,502.0,502.0,502.0,502.0,502.0,502.0,502.0,502.0,502.0,502.0,502.0,502.0,502.0,523.0,523.0,523.0,523.0,510.0,510.0,510.0,510.0,510.0,510.0,510.0,510.0,510.0,510.0,510.0,510.0,510.0,510.0,510.0,510.0,517.0,502.0,510.0,500,500,500,518.6,502.93333333333334,516.8333333333334
0,4.0,19.0,7.0,524.0,504.0,512.0,524.0,524.0,524.0,524.0,524.0,524.0,524.0,524.0,524.0,524.0,524.0,524.0,524.0,524.0,524.0,524.0,522.0,522.0,522.0,522.0,485.0,485.0,485.0,485.0,485.0,485.0,485.0,485.0,485.0,485.0,485.0,485.0,485.0,485.0,485.0,485.0,504.0,504.0,504.0,504.0,512.0,512.0,512.0,512.0,512.0,512.0,512.0,512.0,512.0,512.0,512.0,512.0,512.0,512.0,512.0,512.0,505.0,505.0,505.0,505.0,522.0,485.0,505.0,500,500,500,522.6666666666666,492.06666666666666,510.53333333333336
0,2.0,19.0,7.0,522.0,504.0,512.0,522.0,522.0,522.0,522.0,522.0,522.0,522.0,522.0,522.0,522.0,522.0,522.0,522.0,522.0,522.0,522.0,522.0,522.0,522.0,522.0,504.0,504.0,504.0,504.0,504.0,504.0,504.0,504.0,504.0,504.0,504.0,504.0,495.0,495.0,495.0,495.0,495.0,495.0,495.0,495.0,505.0,505.0,505.0,505.0,505.0,505.0,505.0,505.0,505.0,505.0,505.0,505.0,512.0,512.0,512.0,512.0,512.0,512.0,512.0,512.0,522.0,495.0,505.0,500,500,500,522.7333333333333,495.53333333333336,508.73333333333335
0,3.0,15.0,9.0,522.0,495.0,512.0,522.0,522.0,522.0,522.0,522.0,522.0,522.0,522.0,522.0,522.0,522.0,522.0,522.0,520.0,520.0,520.0,520.0,519.0,519.0,519.0,495.0,495.0,495.0,495.0,495.0,495.0,495.0,495.0,495.0,495.0,495.0,495.0,495.0,489.0,489.0,489.0,489.0,492.0,492.0,492.0,512.0,512.0,512.0,512.0,512.0,512.0,512.0,512.0,512.0,512.0,512.0,512.0,512.0,507.0,507.0,507.0,507.0,503.0,503.0,503.0,519.0,489.0,503.0,500,500,500,521.4333333333333,494.2,510.2
0,7.0,32.0,9.0,519.0,521.0,512.0,519.0,519.0,519.0,519.0,519.0,519.0,519.0,519.0,519.0,519.0,519.0,519.0,519.0,519.0,519.0,515.0,515.0,515.0,515.0,515.0,492.0,492.0,492.0,492.0,492.0,492.0,492.0,492.0,492.0,492.0,492.0,492.0,492.0,492.0,492.0,521.0,521.0,521.0,521.0,521.0,503.0,503.0,503.0,503.0,503.0,503.0,503.0,503.0,503.0,503.0,503.0,503.0,503.0,503.0,503.0,512.0,512.0,512.0,512.0,512.0,515.0,492.0,503.0,500,500,500,519.0666666666667,497.03333333333336,506.8333333333333
0,6.0,42.0,17.0,515.0,521.0,512.0,515.0,515.0,515.0,515.0,515.0,515.0,515.0,515.0,515.0,515.0,515.0,515.0,515.0,515.0,515.0,513.0,513.0,513.0,513.0,513.0,521.0,521.0,521.0,521.0,521.0,521.0,521.0,521.0,521.0,521.0,521.0,521.0,521.0,521.0,521.0,479.0,479.0,479.0,479.0,479.0,512.0,512.0,512.0,512.0,512.0,512.0,512.0,512.0,512.0,512.0,512.0,512.0,512.0,512.0,512.0,495.0,495.0,495.0,495.0,495.0,513.0,479.0,495.0,500,500,500,515.8666666666667,505.3,506.46666666666664
0,7.0,42.0,17.0,513.0,486.0,501.0,513.0,513.0,513.0,513.0,513.0,513.0,513.0,513.0,513.0,513.0,513.0,513.0,508.0,508.0,508.0,508.0,508.0,508.0,508.0,508.0,479.0,479.0,479.0,479.0,479.0,479.0,479.0,479.0,479.0,479.0,479.0,479.0,486.0,486.0,486.0,486.0,486.0,486.0,486.0,486.0,495.0,495.0,495.0,495.0,495.0,495.0,495.0,495.0,495.0,495.0,495.0,495.0,501.0,501.0,501.0,501.0,501.0,501.0,501.0,501.0,508.0,479.0,495.0,500,500,500,512.0,487.8666666666667,499.43333333333334
0,17.0,53.0,14.0,508.0,532.0,509.0,508.0,508.0,508.0,508.0,508.0,508.0,508.0,496.0,496.0,496.0,496.0,497.0,497.0,497.0,497.0,497.0,497.0,497.0,497.0,497.0,486.0,486.0,486.0,486.0,486.0,486.0,486.0,526.0,526.0,526.0,526.0,532.0,532.0,532.0,532.0,532.0,532.0,532.0,532.0,532.0,501.0,501.0,501.0,501.0,501.0,501.0,501.0,503.0,503.0,503.0,503.0,509.0,509.0,509.0,509.0,509.0,509.0,509.0,509.0,509.0,496.0,486.0,501.0,500,500,500,503.6,504.43333333333334,503.06666666666666
0,2.0,46.0,14.0,497.0,532.0,517.0,497.0,497.0,497.0,497.0,497.0,497.0,497.0,497.0,497.0,497.0,495.0,495.0,495.0,495.0,495.0,495.0,495.0,495.0,495.0,495.0,532.0,532.0,532.0,532.0,532.0,532.0,525.0,525.0,525.0,525.0,486.0,486.0,486.0,486.0,486.0,486.0,486.0,486.0,486.0,486.0,509.0,509.0,509.0,509.0,509.0,509.0,517.0,517.0,517.0,517.0,510.0,510.0,510.0,510.0,510.0,510.0,510.0,510.0,510.0,510.0,495.0,486.0,509.0,500,500,500,496.46666666666664,519.9333333333333,509.9
0,1.0,19.0,14.0,496.0,505.0,524.0,495.0,495.0,495.0,495.0,495.0,495.0,495.0,495.0,495.0,495.0,495.0,495.0,496.0,496.0,496.0,496.0,496.0,496.0,496.0,496.0,486.0,486.0,486.0,486.0,486.0,486.0,486.0,486.0,486.0,486.0,486.0,486.0,505.0,505.0,505.0,505.0,505.0,505.0,505.0,505.0,510.0,510.0,510.0,510.0,510.0,510.0,510.0,510.0,510.0,510.0,510.0,510.0,524.0,524.0,524.0,524.0,524.0,524.0,524.0,524.0,495.0,486.0,510.0,500,500,500,495.26666666666665,491.06666666666666,513.7333333333333
0,3.0,41.0,24.0,496.0,527.0,524.0,496.0,496.0,496.0,496.0,496.0,496.0,496.0,496.0,496.0,496.0,496.0,493.0,493.0,493.0,493.0,493.0,493.0,493.0,493.0,493.0,505.0,505.0,505.0,505.0,505.0,505.0,505.0,505.0,505.0,505.0,505.0,527.0,527.0,527.0,527.0,527.0,527.0,527.0,527.0,527.0,524.0,524.0,524.0,524.0,524.0,524.0,524.0,524.0,524.0,524.0,524.0,500.0,500.0,500.0,500.0,500.0,500.0,500.0,500.0,500.0,493.0,505.0,500.0,500,500,500,494.93333333333334,508.43333333333334,514.4666666666667
0,5.0,5.0,1.0,498.0,527.0,501.0,493.0,493.0,493.0,493.0,493.0,493.0,493.0,493.0,498.0,498.0,498.0,498.0,498.0,498.0,498.0,498.0,498.0,498.0,498.0,498.0,527.0,527.0,527.0,527.0,527.0,527.0,527.0,527.0,522.0,522.0,522.0,522.0,522.0,522.0,522.0,522.0,522.0,522.0,522.0,522.0,500.0,500.0,500.0,500.0,500.0,500.0,500.0,500.0,501.0,501.0,501.0,501.0,501.0,501.0,501.0,501.0,501.0,501.0,501.0,501.0,493.0,522.0,500.0,500,500,500,494.6666666666667,525.3333333333334,500.3333333333333
0,12.0,22.0,9.0,510.0,527.0,510.0,503.0,503.0,503.0,503.0,503.0,503.0,503.0,503.0,503.0,503.0,503.0,510.0,510.0,510.0,510.0,510.0,510.0,510.0,510.0,510.0,505.0,505.0,505.0,505.0,505.0,505.0,505.0,505.0,505.0,505.0,505.0,527.0,527.0,527.0,527.0,527.0,527.0,527.0,527.0,527.0,502.0,502.0,502.0,502.0,502.0,502.0,502.0,502.0,502.0,502.0,502.0,510.0,510.0,510.0,510.0,510.0,510.0,510.0,510.0,510.0,503.0,505.0,502.0,500,500,500,503.8666666666667,514.2666666666667,503.93333333333334
0,4.0,24.0,12.0,514.0,507.0,522.0,512.0,512.0,512.0,514.0,514.0,514.0,514.0,514.0,514.0,514.0,514.0,514.0,514.0,514.0,514.0,514.0,514.0,514.0,509.0,509.0,507.0,507.0,507.0,503.0,503.0,503.0,503.0,503.0,503.0,503.0,503.0,503.0,503.0,503.0,503.0,503.0,503.0,503.0,516.0,516.0,522.0,522.0,522.0,513.0,513.0,513.0,513.0,513.0,513.0,513.0,513.0,513.0,513.0,513.0,513.0,513.0,513.0,513.0,524.0,524.0,512.0,503.0,513.0,500,500,500,512.4666666666667,510.8666666666667,513.6
0,5.0,14.0,11.0,514.0,516.0,524.0,509.0,509.0,509.0,509.0,509.0,509.0,509.0,509.0,514.0,514.0,514.0,514.0,514.0,514.0,514.0,514.0,514.0,514.0,523.0,523.0,516.0,516.0,516.0,516.0,516.0,516.0,516.0,516.0,502.0,502.0,502.0,502.0,502.0,502.0,502.0,502.0,502.0,502.0,502.0,502.0,524.0,524.0,524.0,524.0,524.0,524.0,524.0,524.0,514.0,514.0,514.0,514.0,514.0,514.0,514.0,514.0,514.0,514.0,521.0,521.0,509.0,502.0,514.0,500,500,500,511.3333333333333,509.6,519.2
0,9.0,8.0,7.0,523.0,510.0,521.0,523.0,523.0,523.0,523.0,523.0,523.0,523.0,523.0,523.0,523.0,523.0,523.0,522.0,522.0,522.0,522.0,522.0,522.0,522.0,522.0,502.0,502.0,502.0,502.0,502.0,502.0,502.0,502.0,502.0,502.0,502.0,502.0,510.0,510.0,510.0,510.0,510.0,510.0,510.0,510.0,521.0,521.0,521.0,521.0,521.0,521.0,521.0,521.0,521.0,521.0,521.0,521.0,518.0,518.0,518.0,518.0,518.0,518.0,518.0,518.0,522.0,502.0,518.0,500,500,500,521.8333333333334,504.1333333333333,519.5
0,2.0,20.0,18.0,524.0,522.0,525.0,522.0,522.0,522.0,522.0,522.0,522.0,522.0,522.0,522.0,522.0,522.0,522.0,522.0,522.0,524.0,524.0,524.0,524.0,524.0,524.0,510.0,510.0,510.0,510.0,510.0,510.0,522.0,522.0,522.0,522.0,522.0,522.0,522.0,522.0,511.0,511.0,511.0,511.0,511.0,511.0,518.0,518.0,518.0,518.0,518.0,518.0,525.0,525.0,525.0,525.0,525.0,525.0,525.0,525.0,507.0,507.0,507.0,507.0,507.0,507.0,522.0,510.0,507.0,500,500,500,522.4333333333333,513.1333333333333,517.7666666666667
0,3.0,32.0,18.0,525.0,511.0,517.0,524.0,524.0,524.0,524.0,524.0,524.0,524.0,524.0,524.0,524.0,524.0,524.0,524.0,524.0,525.0,525.0,525.0,525.0,525.0,525.0,511.0,511.0,511.0,511.0,511.0,511.0,511.0,511.0,511.0,511.0,511.0,511.0,511.0,511.0,490.0,490.0,490.0,490.0,490.0,490.0,507.0,507.0,507.0,507.0,507.0,507.0,507.0,507.0,507.0,507.0,507.0,507.0,507.0,507.0,517.0,517.0,517.0,517.0,517.0,517.0,524.0,490.0,507.0,500,500,500,523.3666666666667,511.06666666666666,513.8666666666667
0,1.0,21.0,17.0,525.0,505.0,524.0,525.0,525.0,525.0,525.0,525.0,525.0,525.0,525.0,525.0,525.0,525.0,525.0,525.0,525.0,524.0,524.0,524.0,524.0,524.0,524.0,490.0,490.0,490.0,490.0,490.0,490.0,490.0,490.0,490.0,490.0,490.0,490.0,490.0,505.0,505.0,505.0,505.0,505.0,505.0,505.0,517.0,517.0,517.0,517.0,517.0,517.0,517.0,517.0,517.0,517.0,517.0,517.0,517.0,524.0,524.0,524.0,524.0,524.0,524.0,524.0,524.0,490.0,517.0,500,500,500,524.7333333333333,494.6,517.1666666666666
0,5.0,24.0,7.0,524.0,514.0,524.0,524.0,524.0,524.0,524.0,524.0,524.0,524.0,524.0,524.0,524.0,524.0,524.0,524.0,524.0,524.0,520.0,520.0,520.0,520.0,520.0,505.0,505.0,505.0,505.0,505.0,505.0,505.0,505.0,505.0,505.0,505.0,505.0,505.0,505.0,505.0,514.0,514.0,514.0,514.0,514.0,524.0,524.0,524.0,524.0,524.0,524.0,524.0,524.0,524.0,524.0,524.0,524.0,524.0,524.0,524.0,522.0,522.0,522.0,522.0,522.0,520.0,505.0,522.0,500,500,500,523.4,505.5,523.2
0,4.0,13.0,14.0,520.0,514.0,522.0,520.0,520.0,520.0,520.0,520.0,516.0,516.0,516.0,516.0,516.0,516.0,516.0,516.0,516.0,516.0,516.0,516.0,516.0,516.0,516.0,514.0,514.0,514.0,514.0,514.0,501.0,501.0,501.0,501.0,501.0,501.0,501.0,501.0,501.0,501.0,501.0,501.0,501.0,501.0,501.0,522.0,522.0,522.0,522.0,522.0,508.0,508.0,508.0,508.0,508.0,508.0,508.0,508.0,508.0,508.0,508.0,508.0,508.0,508.0,508.0,516.0,501.0,508.0,500,500,500,518.1333333333333,507.93333333333334,515.4666666666667
0,12.0,11.0,2.0,517.0,498.0,510.0,517.0,517.0,517.0,505.0,505.0,505.0,505.0,505.0,505.0,505.0,505.0,505.0,505.0,505.0,505.0,505.0,505.0,505.0,505.0,505.0,490.0,490.0,490.0,498.0,498.0,498.0,498.0,498.0,498.0,498.0,498.0,498.0,498.0,498.0,498.0,498.0,498.0,498.0,498.0,498.0,510.0,510.0,510.0,508.0,508.0,508.0,508.0,508.0,508.0,508.0,508.0,508.0,508.0,508.0,508.0,508.0,508.0,508.0,508.0,508.0,505.0,490.0,508.0,500,500,500,510.43333333333334,496.1,508.6
0,7.0,24.0,6.0,501.0,520.0,512.0,501.0,501.0,501.0,501.0,501.0,501.0,501.0,498.0,498.0,498.0,498.0,498.0,498.0,498.0,498.0,498.0,498.0,498.0,498.0,498.0,520.0,520.0,520.0,520.0,520.0,520.0,520.0,496.0,496.0,496.0,496.0,496.0,496.0,496.0,496.0,496.0,496.0,496.0,496.0,496.0,512.0,512.0,512.0,512.0,512.0,512.0,512.0,506.0,506.0,506.0,506.0,506.0,506.0,506.0,506.0,506.0,506.0,506.0,506.0,506.0,498.0,496.0,506.0,500,500,500,500.8,507.6,509.2
0,4.0,27.0,5.0,500.0,523.0,506.0,498.0,498.0,498.0,498.0,498.0,498.0,496.0,496.0,496.0,496.0,496.0,496.0,496.0,496.0,496.0,496.0,496.0,500.0,500.0,500.0,496.0,496.0,496.0,496.0,496.0,496.0,523.0,523.0,523.0,523.0,523.0,523.0,523.0,523.0,523.0,523.0,523.0,501.0,501.0,501.0,506.0,506.0,506.0,506.0,506.0,506.0,505.0,505.0,505.0,505.0,505.0,505.0,505.0,505.0,505.0,505.0,505.0,501.0,501.0,501.0,496.0,496.0,501.0,500,500,500,497.3333333333333,507.1333333333333,505.26666666666665
0,2.0,24.0,7.0,500.0,525.0,501.0,500.0,500.0,500.0,498.0,498.0,498.0,498.0,498.0,498.0,498.0,498.0,498.0,498.0,498.0,498.0,498.0,498.0,499.0,499.0,499.0,501.0,501.0,501.0,525.0,525.0,525.0,525.0,525.0,525.0,525.0,525.0,525.0,525.0,525.0,525.0,525.0,525.0,512.0,512.0,512.0,501.0,501.0,501.0,494.0,494.0,494.0,494.0,494.0,494.0,494.0,494.0,494.0,494.0,494.0,494.0,494.0,494.0,504.0,504.0,504.0,498.0,501.0,494.0,500,500,500,499.0,513.0,497.5
0,5.0,20.0,10.0,503.0,512.0,504.0,499.0,499.0,499.0,499.0,499.0,499.0,499.0,499.0,499.0,503.0,503.0,503.0,503.0,503.0,503.0,503.0,503.0,503.0,503.0,503.0,512.0,512.0,512.0,512.0,512.0,512.0,512.0,512.0,512.0,505.0,505.0,505.0,505.0,505.0,505.0,505.0,505.0,505.0,505.0,505.0,504.0,504.0,504.0,504.0,504.0,504.0,504.0,504.0,504.0,494.0,494.0,494.0,494.0,494.0,494.0,494.0,494.0,494.0,494.0,494.0,499.0,505.0,494.0,500,500,500,500.26666666666665,510.53333333333336,500.0
0,5.0,17.0,10.0,508.0,522.0,504.0,507.0,507.0,507.0,507.0,507.0,507.0,507.0,507.0,508.0,508.0,508.0,508.0,508.0,508.0,508.0,508.0,508.0,508.0,508.0,508.0,522.0,522.0,522.0,522.0,522.0,522.0,522.0,522.0,505.0,505.0,505.0,505.0,505.0,505.0,505.0,505.0,505.0,505.0,505.0,505.0,496.0,496.0,496.0,496.0,496.0,496.0,496.0,496.0,504.0,504.0,504.0,504.0,504.0,504.0,504.0,504.0,504.0,504.0,504.0,504.0,507.0,505.0,496.0,500,500,500,506.46666666666664,511.23333333333335,498.73333333333335
0,7.0,17.0,16.0,515.0,522.0,520.0,512.0,512.0,512.0,512.0,512.0,512.0,512.0,512.0,512.0,515.0,515.0,515.0,515.0,515.0,515.0,515.0,515.0,515.0,515.0,515.0,515.0,515.0,515.0,515.0,515.0,515.0,515.0,515.0,515.0,522.0,522.0,522.0,522.0,522.0,522.0,522.0,522.0,522.0,522.0,522.0,508.0,508.0,508.0,508.0,508.0,508.0,508.0,508.0,508.0,520.0,520.0,520.0,520.0,520.0,520.0,520.0,520.0,520.0,520.0,520.0,512.0,515.0,508.0,500,500,500,512.0666666666667,515.0,511.06666666666666
0,6.0,26.0,11.0,521.0,513.0,522.0,519.0,519.0,519.0,519.0,519.0,519.0,519.0,519.0,519.0,519.0,519.0,521.0,521.0,521.0,521.0,521.0,521.0,521.0,521.0,521.0,496.0,496.0,496.0,496.0,496.0,496.0,496.0,496.0,496.0,496.0,496.0,513.0,513.0,513.0,513.0,513.0,513.0,513.0,513.0,513.0,522.0,522.0,522.0,522.0,522.0,522.0,522.0,522.0,522.0,522.0,522.0,511.0,511.0,511.0,511.0,511.0,511.0,511.0,511.0,511.0,519.0,496.0,511.0,500,500,500,518.5333333333333,508.03333333333336,518.1666666666666
0,4.0,24.0,14.0,525.0,513.0,525.0,521.0,521.0,521.0,525.0,525.0,525.0,525.0,525.0,525.0,525.0,525.0,525.0,525.0,525.0,525.0,525.0,525.0,525.0,525.0,525.0,513.0,513.0,513.0,489.0,489.0,489.0,489.0,489.0,489.0,489.0,489.0,489.0,489.0,489.0,489.0,489.0,489.0,489.0,489.0,489.0,511.0,511.0,511.0,525.0,525.0,525.0,525.0,525.0,525.0,525.0,525.0,525.0,525.0,525.0,525.0,525.0,525.0,525.0,525.0,525.0,521.0,489.0,511.0,500,500,500,523.0,501.0,518.0
0,12.0,32.0,22.0,518.0,521.0,517.0,518.0,518.0,518.0,518.0,518.0,518.0,518.0,518.0,518.0,518.0,513.0,513.0,513.0,513.0,513.0,513.0,513.0,513.0,513.0,513.0,518.0,518.0,518.0,518.0,518.0,518.0,518.0,518.0,518.0,518.0,521.0,521.0,521.0,521.0,521.0,521.0,521.0,521.0,521.0,521.0,503.0,503.0,503.0,503.0,503.0,503.0,503.0,503.0,503.0,503.0,517.0,517.0,517.0,517.0,517.0,517.0,517.0,517.0,517.0,517.0,513.0,518.0,503.0,500,500,500,517.7333333333333,513.2,512.0666666666667
0,3.0,17.0,23.0,516.0,524.0,500.0,515.0,515.0,515.0,515.0,515.0,515.0,515.0,515.0,516.0,516.0,516.0,516.0,516.0,516.0,516.0,516.0,516.0,516.0,516.0,518.0,524.0,524.0,524.0,524.0,524.0,524.0,524.0,524.0,507.0,507.0,507.0,507.0,507.0,507.0,507.0,507.0,507.0,507.0,507.0,512.0,500.0,500.0,500.0,500.0,500.0,500.0,500.0,500.0,494.0,494.0,494.0,494.0,494.0,494.0,494.0,494.0,494.0,494.0,494.0,513.0,515.0,507.0,494.0,500,500,500,514.9333333333333,516.5,501.56666666666666
0,3.0,30.0,20.0,518.0,512.0,514.0,516.0,516.0,518.0,518.0,518.0,518.0,518.0,518.0,518.0,518.0,518.0,518.0,516.0,516.0,516.0,516.0,516.0,516.0,516.0,516.0,507.0,507.0,512.0,512.0,512.0,512.0,512.0,512.0,512.0,512.0,512.0,512.0,494.0,494.0,494.0,494.0,494.0,494.0,494.0,494.0,494.0,494.0,513.0,513.0,513.0,513.0,513.0,513.0,513.0,513.0,513.0,513.0,514.0,514.0,514.0,514.0,514.0,514.0,514.0,514.0,516.0,494.0,494.0,500,500,500,516.7,509.4,504.2
0,6.0,18.0,1.0,516.0,510.0,514.0,516.0,516.0,516.0,516.0,516.0,516.0,516.0,512.0,512.0,512.0,512.0,512.0,512.0,512.0,512.0,512.0,512.0,512.0,512.0,512.0,494.0,494.0,494.0,494.0,494.0,494.0,494.0,510.0,510.0,510.0,510.0,510.0,510.0,510.0,510.0,510.0,510.0,510.0,510.0,510.0,514.0,514.0,514.0,514.0,514.0,514.0,514.0,513.0,513.0,513.0,513.0,513.0,513.0,513.0,513.0,513.0,513.0,513.0,513.0,513.0,512.0,494.0,513.0,500,500,500,514.7333333333333,499.93333333333334,513.6333333333333
0,8.0,4.0,10.0,512.0,514.0,516.0,512.0,512.0,512.0,512.0,505.0,505.0,505.0,505.0,505.0,505.0,505.0,505.0,505.0,505.0,505.0,505.0,504.0,504.0,504.0,504.0,510.0,510.0,510.0,510.0,514.0,514.0,514.0,514.0,514.0,514.0,514.0,514.0,514.0,514.0,514.0,514.0,513.0,513.0,513.0,513.0,513.0,513.0,513.0,513.0,516.0,516.0,516.0,516.0,516.0,516.0,516.0,516.0,516.0,516.0,516.0,516.0,506.0,506.0,506.0,506.0,504.0,510.0,506.0,500,500,500,508.1666666666667,512.0333333333333,513.6
0,7.0,10.0,16.0,504.0,523.0,506.0,504.0,504.0,504.0,504.0,504.0,504.0,504.0,504.0,504.0,498.0,498.0,498.0,498.0,498.0,498.0,498.0,498.0,498.0,498.0,498.0,513.0,513.0,513.0,513.0,513.0,513.0,513.0,513.0,513.0,523.0,523.0,523.0,523.0,523.0,523.0,523.0,523.0,523.0,523.0,523.0,506.0,506.0,506.0,506.0,506.0,506.0,506.0,506.0,500.0,500.0,500.0,500.0,500.0,500.0,500.0,500.0,500.0,500.0,500.0,500.0,498.0,513.0,500.0,500,500,500,502.43333333333334,516.2333333333333,506.53333333333336
0,5.0,19.0,4.0,501.0,542.0,504.0,493.0,493.0,493.0,493.0,493.0,493.0,493.0,497.0,497.0,497.0,497.0,497.0,497.0,497.0,501.0,501.0,501.0,501.0,501.0,501.0,533.0,533.0,533.0,533.0,533.0,533.0,533.0,542.0,542.0,542.0,542.0,542.0,542.0,542.0,526.0,526.0,526.0,526.0,526.0,526.0,500.0,500.0,500.0,500.0,500.0,500.0,500.0,504.0,504.0,504.0,504.0,504.0,504.0,504.0,485.0,485.0,485.0,485.0,485.0,485.0,493.0,526.0,485.0,500,500,500,496.1333333333333,532.9666666666667,501.46666666666664
0,4.0,16.0,19.0,501.0,534.0,502.0,501.0,501.0,501.0,501.0,501.0,501.0,501.0,501.0,501.0,501.0,501.0,501.0,501.0,501.0,497.0,497.0,497.0,497.0,497.0,497.0,526.0,526.0,526.0,526.0,526.0,526.0,526.0,526.0,526.0,526.0,526.0,526.0,526.0,526.0,534.0,534.0,534.0,534.0,534.0,534.0,485.0,485.0,485.0,485.0,485.0,485.0,485.0,485.0,485.0,485.0,485.0,485.0,485.0,485.0,502.0,502.0,502.0,502.0,502.0,502.0,497.0,526.0,485.0,500,500,500,499.93333333333334,528.9333333333333,489.73333333333335
0,8.0,38.0,25.0,505.0,534.0,510.0,497.0,497.0,497.0,497.0,497.0,497.0,497.0,497.0,497.0,497.0,497.0,497.0,497.0,505.0,505.0,505.0,505.0,505.0,505.0,505.0,534.0,534.0,534.0,534.0,534.0,534.0,534.0,534.0,534.0,534.0,534.0,534.0,534.0,496.0,496.0,496.0,496.0,496.0,496.0,496.0,502.0,502.0,502.0,502.0,502.0,502.0,502.0,502.0,502.0,502.0,502.0,502.0,502.0,510.0,510.0,510.0,510.0,510.0,510.0,510.0,497.0,496.0,502.0,500,500,500,499.26666666666665,525.8,499.3666666666667
0,1.0,16.0,3.0,506.0,512.0,513.0,505.0,505.0,505.0,505.0,505.0,505.0,505.0,505.0,505.0,505.0,506.0,506.0,506.0,506.0,506.0,506.0,506.0,506.0,506.0,506.0,496.0,496.0,496.0,496.0,496.0,496.0,496.0,496.0,496.0,496.0,512.0,512.0,512.0,512.0,512.0,512.0,512.0,512.0,512.0,512.0,510.0,510.0,510.0,510.0,510.0,510.0,510.0,510.0,510.0,510.0,513.0,513.0,513.0,513.0,513.0,513.0,513.0,513.0,513.0,513.0,505.0,496.0,510.0,500,500,500,505.3333333333333,501.3333333333333,511.0
0,4.0,38.0,12.0,506.0,550.0,513.0,506.0,506.0,506.0,506.0,506.0,506.0,506.0,506.0,506.0,502.0,502.0,502.0,502.0,502.0,502.0,502.0,502.0,502.0,502.0,502.0,512.0,512.0,512.0,512.0,512.0,512.0,512.0,512.0,512.0,550.0,550.0,550.0,550.0,550.0,550.0,550.0,550.0,550.0,550.0,550.0,513.0,513.0,513.0,513.0,513.0,513.0,513.0,513.0,513.0,501.0,501.0,501.0,501.0,501.0,501.0,501.0,501.0,501.0,501.0,501.0,502.0,512.0,501.0,500,500,500,504.8,523.4,509.4
0,21.0,43.0,13.0,523.0,550.0,514.0,502.0,502.0,502.0,502.0,502.0,514.0,514.0,514.0,514.0,514.0,514.0,514.0,514.0,514.0,514.0,523.0,523.0,523.0,523.0,523.0,550.0,550.0,550.0,550.0,550.0,509.0,509.0,509.0,509.0,509.0,509.0,509.0,509.0,509.0,509.0,507.0,507.0,507.0,507.0,507.0,501.0,501.0,501.0,501.0,501.0,506.0,506.0,506.0,506.0,506.0,506.0,506.0,506.0,506.0,506.0,514.0,514.0,514.0,514.0,514.0,502.0,507.0,501.0,500,500,500,508.6333333333333,529.2333333333333,504.56666666666666
0,9.0,13.0,8.0,523.0,507.0,514.0,523.0,523.0,523.0,523.0,523.0,523.0,523.0,523.0,523.0,523.0,523.0,523.0,523.0,523.0,523.0,522.0,522.0,522.0,522.0,522.0,507.0,507.0,507.0,507.0,507.0,507.0,507.0,507.0,507.0,507.0,507.0,507.0,507.0,507.0,507.0,496.0,496.0,496.0,496.0,496.0,514.0,514.0,514.0,514.0,514.0,514.0,514.0,514.0,514.0,514.0,514.0,514.0,514.0,514.0,514.0,511.0,511.0,511.0,511.0,511.0,522.0,496.0,511.0,500,500,500,522.0,506.1,512.9
0,1.0,23.0,5.0,522.0,519.0,511.0,522.0,522.0,522.0,522.0,522.0,522.0,522.0,522.0,522.0,522.0,522.0,522.0,522.0,522.0,522.0,522.0,522.0,522.0,522.0,522.0,496.0,496.0,496.0,496.0,496.0,496.0,496.0,496.0,496.0,496.0,496.0,496.0,496.0,496.0,519.0,519.0,519.0,519.0,519.0,519.0,511.0,511.0,511.0,511.0,511.0,511.0,511.0,511.0,511.0,511.0,511.0,511.0,511.0,511.0,509.0,509.0,509.0,509.0,509.0,509.0,522.0,496.0,509.0,500,500,500,522.3,503.1333333333333,511.56666666666666
0,4.0,23.0,5.0,526.0,519.0,514.0,522.0,522.0,522.0,522.0,522.0,522.0,522.0,522.0,522.0,522.0,522.0,522.0,522.0,522.0,522.0,526.0,526.0,526.0,526.0,526.0,519.0,519.0,519.0,519.0,519.0,519.0,519.0,519.0,519.0,519.0,519.0,519.0,519.0,519.0,519.0,510.0,510.0,510.0,510.0,510.0,509.0,509.0,509.0,509.0,509.0,509.0,509.0,509.0,509.0,509.0,509.0,509.0,509.0,509.0,509.0,514.0,514.0,514.0,514.0,514.0,522.0,510.0,509.0,500,500,500,522.4,510.43333333333334,510.1666666666667
0,7.0,24.0,8.0,529.0,519.0,514.0,522.0,522.0,522.0,522.0,526.0,526.0,526.0,526.0,526.0,526.0,526.0,526.0,526.0,526.0,526.0,526.0,529.0,529.0,529.0,529.0,519.0,519.0,519.0,519.0,510.0,510.0,510.0,510.0,510.0,510.0,510.0,510.0,510.0,510.0,510.0,510.0,495.0,495.0,495.0,495.0,509.0,509.0,509.0,509.0,514.0,514.0,514.0,514.0,514.0,514.0,514.0,514.0,514.0,514.0,514.0,514.0,506.0,506.0,506.0,506.0,522.0,495.0,506.0,500,500,500,524.5333333333333,512.2,510.6
0,3.0,22.0,8.0,529.0,495.0,514.0,529.0,529.0,529.0,529.0,529.0,529.0,529.0,529.0,529.0,529.0,529.0,529.0,529.0,529.0,529.0,529.0,529.0,528.0,528.0,528.0,495.0,495.0,495.0,495.0,495.0,495.0,495.0,495.0,495.0,495.0,495.0,495.0,495.0,495.0,495.0,495.0,495.0,488.0,488.0,488.0,506.0,506.0,506.0,506.0,506.0,506.0,506.0,506.0,506.0,506.0,506.0,506.0,506.0,506.0,506.0,506.0,506.0,514.0,514.0,514.0,528.0,488.0,506.0,500,500,500,528.4,496.8,508.1333333333333
0,2.0,12.0,8.0,530.0,500.0,514.0,529.0,529.0,529.0,529.0,529.0,528.0,528.0,528.0,528.0,528.0,528.0,528.0,528.0,528.0,528.0,528.0,530.0,530.0,530.0,530.0,495.0,495.0,495.0,495.0,488.0,488.0,488.0,488.0,488.0,488.0,488.0,488.0,488.0,488.0,488.0,488.0,500.0,500.0,500.0,500.0,506.0,506.0,506.0,506.0,514.0,514.0,514.0,514.0,514.0,514.0,514.0,514.0,514.0,514.0,514.0,514.0,507.0,507.0,507.0,507.0,528.0,488.0,506.0,500,500,500,528.6333333333333,492.3,509.53333333333336
0,5.0,12.0,7.0,530.0,500.0,511.0,530.0,530.0,530.0,530.0,530.0,530.0,530.0,530.0,525.0,525.0,525.0,525.0,525.0,525.0,525.0,525.0,525.0,525.0,525.0,525.0,500.0,500.0,500.0,500.0,500.0,500.0,500.0,500.0,500.0,500.0,500.0,500.0,500.0,500.0,500.0,500.0,500.0,500.0,500.0,500.0,507.0,507.0,507.0,507.0,507.0,507.0,507.0,507.0,511.0,511.0,511.0,511.0,511.0,511.0,511.0,511.0,511.0,511.0,511.0,511.0,525.0,500.0,507.0,500,500,500,527.8,498.8,509.3
0,10.0,3.0,17.0,525.0,500.0,516.0,525.0,525.0,525.0,525.0,525.0,525.0,525.0,525.0,520.0,520.0,520.0,520.0,520.0,520.0,520.0,520.0,525.0,525.0,525.0,525.0,500.0,500.0,500.0,500.0,500.0,500.0,500.0,500.0,497.0,497.0,497.0,497.0,497.0,497.0,497.0,497.0,497.0,497.0,497.0,497.0,511.0,511.0,511.0,511.0,511.0,511.0,511.0,511.0,499.0,499.0,499.0,499.0,499.0,499.0,499.0,499.0,516.0,516.0,516.0,516.0,520.0,497.0,499.0,500,500,500,524.1666666666666,498.8,508.06666666666666
0,11.0,3.0,17.0,525.0,498.0,516.0,520.0,520.0,525.0,525.0,525.0,525.0,525.0,525.0,525.0,525.0,525.0,525.0,525.0,525.0,525.0,525.0,525.0,514.0,514.0,514.0,497.0,497.0,497.0,497.0,497.0,497.0,497.0,497.0,497.0,497.0,497.0,497.0,497.0,497.0,497.0,497.0,497.0,498.0,498.0,498.0,499.0,499.0,516.0,516.0,516.0,516.0,516.0,516.0,516.0,516.0,516.0,516.0,516.0,516.0,516.0,516.0,516.0,504.0,504.0,504.0,514.0,497.0,499.0,500,500,500,522.9333333333333,497.46666666666664,510.0
0,16.0,1.0,12.0,514.0,498.0,505.0,514.0,514.0,514.0,514.0,514.0,514.0,514.0,514.0,514.0,514.0,514.0,514.0,514.0,514.0,509.0,509.0,509.0,509.0,509.0,509.0,498.0,498.0,498.0,498.0,498.0,498.0,498.0,498.0,498.0,498.0,498.0,498.0,498.0,498.0,498.0,498.0,498.0,498.0,498.0,498.0,504.0,504.0,504.0,504.0,504.0,504.0,504.0,504.0,504.0,504.0,504.0,504.0,504.0,504.0,505.0,505.0,505.0,505.0,505.0,505.0,509.0,498.0,504.0,500,500,500,516.6666666666666,497.6666666666667,508.2
0,9.0,9.0,2.0,509.0,507.0,505.0,509.0,509.0,509.0,509.0,509.0,500.0,500.0,500.0,500.0,500.0,500.0,500.0,500.0,500.0,500.0,500.0,500.0,500.0,500.0,500.0,498.0,498.0,498.0,498.0,498.0,507.0,507.0,507.0,507.0,507.0,507.0,507.0,507.0,507.0,507.0,507.0,507.0,507.0,507.0,507.0,505.0,505.0,505.0,505.0,505.0,503.0,503.0,503.0,503.0,503.0,503.0,503.0,503.0,503.0,503.0,503.0,503.0,503.0,503.0,503.0,500.0,498.0,503.0,500,500,500,505.1,501.9,504.1333333333333
0,2.0,8.0,7.0,499.0,512.0,510.0,499.0,499.0,499.0,499.0,499.0,499.0,499.0,499.0,499.0,499.0,499.0,499.0,498.0,498.0,498.0,498.0,498.0,498.0,498.0,498.0,504.0,504.0,504.0,504.0,504.0,504.0,504.0,504.0,504.0,504.0,504.0,504.0,512.0,512.0,512.0,512.0,512.0,512.0,512.0,512.0,504.0,504.0,504.0,504.0,504.0,504.0,504.0,504.0,504.0,504.0,504.0,504.0,510.0,510.0,510.0,510.0,510.0,510.0,510.0,510.0,498.0,504.0,504.0,500,500,500,498.93333333333334,506.73333333333335,505.4
0,6.0,6.0,18.0,497.0,513.0,518.0,492.0,492.0,492.0,492.0,492.0,492.0,492.0,497.0,497.0,497.0,497.0,497.0,497.0,497.0,497.0,497.0,497.0,497.0,497.0,497.0,507.0,507.0,507.0,507.0,507.0,507.0,507.0,513.0,513.0,513.0,513.0,513.0,513.0,513.0,513.0,513.0,513.0,513.0,513.0,513.0,500.0,500.0,500.0,500.0,500.0,500.0,500.0,518.0,518.0,518.0,518.0,518.0,518.0,518.0,518.0,518.0,518.0,518.0,518.0,518.0,492.0,507.0,500.0,500,500,500,495.5,510.46666666666664,508.73333333333335
0,6.0,16.0,23.0,501.0,525.0,501.0,495.0,495.0,495.0,495.0,495.0,495.0,495.0,495.0,501.0,501.0,501.0,501.0,501.0,501.0,501.0,501.0,501.0,501.0,501.0,501.0,525.0,525.0,525.0,525.0,525.0,525.0,525.0,525.0,509.0,509.0,509.0,509.0,509.0,509.0,509.0,509.0,509.0,509.0,509.0,509.0,495.0,495.0,495.0,495.0,495.0,495.0,495.0,495.0,501.0,501.0,501.0,501.0,501.0,501.0,501.0,501.0,501.0,501.0,501.0,501.0,495.0,509.0,495.0,500,500,500,497.06666666666666,517.2666666666667,503.5
0,8.0,12.0,11.0,509.0,509.0,512.0,501.0,501.0,506.0,506.0,506.0,506.0,506.0,506.0,506.0,506.0,506.0,506.0,506.0,506.0,506.0,509.0,509.0,509.0,509.0,509.0,509.0,509.0,497.0,497.0,497.0,497.0,497.0,497.0,497.0,497.0,497.0,497.0,497.0,497.0,497.0,504.0,504.0,504.0,504.0,504.0,501.0,501.0,512.0,512.0,512.0,512.0,512.0,512.0,512.0,512.0,512.0,512.0,512.0,512.0,512.0,504.0,504.0,504.0,504.0,504.0,501.0,497.0,501.0,500,500,500,504.5,502.96666666666664,506.26666666666665
0,8.0,20.0,8.0,514.0,517.0,511.0,509.0,509.0,509.0,509.0,509.0,509.0,509.0,509.0,509.0,509.0,509.0,509.0,514.0,514.0,514.0,514.0,514.0,514.0,514.0,514.0,504.0,504.0,504.0,504.0,504.0,504.0,504.0,504.0,504.0,504.0,504.0,504.0,517.0,517.0,517.0,517.0,517.0,517.0,517.0,517.0,504.0,504.0,504.0,504.0,504.0,504.0,504.0,504.0,504.0,504.0,504.0,504.0,511.0,511.0,511.0,511.0,511.0,511.0,511.0,511.0,509.0,504.0,504.0,500,500,500,509.2,504.73333333333335,507.53333333333336
0,9.0,21.0,8.0,523.0,507.0,510.0,523.0,523.0,523.0,523.0,523.0,523.0,523.0,523.0,523.0,523.0,523.0,523.0,523.0,523.0,523.0,523.0,523.0,523.0,523.0,523.0,507.0,507.0,507.0,507.0,507.0,507.0,507.0,507.0,507.0,507.0,507.0,507.0,507.0,507.0,507.0,507.0,507.0,507.0,507.0,507.0,510.0,510.0,510.0,510.0,510.0,510.0,510.0,510.0,510.0,510.0,510.0,510.0,510.0,510.0,510.0,510.0,510.0,510.0,510.0,510.0,523.0,507.0,510.0,500,500,500,520.9,511.43333333333334,509.53333333333336
0,5.0,20.0,9.0,526.0,505.0,511.0,525.0,525.0,525.0,525.0,525.0,525.0,525.0,525.0,525.0,525.0,525.0,525.0,525.0,526.0,526.0,526.0,526.0,526.0,526.0,526.0,505.0,505.0,505.0,505.0,505.0,505.0,505.0,505.0,505.0,505.0,505.0,505.0,505.0,498.0,498.0,498.0,498.0,498.0,498.0,498.0,511.0,511.0,511.0,511.0,511.0,511.0,511.0,511.0,511.0,511.0,511.0,511.0,511.0,508.0,508.0,508.0,508.0,508.0,508.0,508.0,525.0,498.0,508.0,500,500,500,523.8333333333334,497.1666666666667,512.5
0,1.0,15.0,10.0,526.0,498.0,518.0,526.0,526.0,526.0,526.0,526.0,526.0,526.0,526.0,526.0,526.0,526.0,526.0,526.0,526.0,526.0,526.0,526.0,526.0,526.0,526.0,498.0,498.0,498.0,498.0,498.0,498.0,498.0,498.0,498.0,498.0,498.0,498.0,498.0,498.0,490.0,490.0,490.0,490.0,490.0,490.0,508.0,508.0,508.0,508.0,508.0,508.0,508.0,508.0,508.0,508.0,508.0,508.0,508.0,508.0,518.0,518.0,518.0,518.0,518.0,518.0,526.0,490.0,508.0,500,500,500,525.9666666666667,496.6333333333333,510.1
0,2.0,22.0,15.0,528.0,490.0,518.0,526.0,528.0,528.0,528.0,528.0,528.0,528.0,528.0,528.0,528.0,528.0,528.0,528.0,528.0,528.0,528.0,528.0,528.0,528.0,528.0,490.0,468.0,468.0,468.0,468.0,468.0,468.0,468.0,468.0,468.0,468.0,468.0,468.0,468.0,468.0,468.0,468.0,468.0,468.0,468.0,518.0,503.0,503.0,503.0,503.0,503.0,503.0,503.0,503.0,503.0,503.0,503.0,503.0,503.0,503.0,503.0,503.0,503.0,503.0,503.0,526.0,468.0,503.0,500,500,500,527.2666666666667,476.06666666666666,508.5
0,5.0,40.0,12.0,528.0,508.0,515.0,528.0,528.0,528.0,528.0,528.0,528.0,528.0,528.0,526.0,526.0,526.0,526.0,526.0,526.0,526.0,526.0,526.0,523.0,523.0,523.0,468.0,468.0,468.0,468.0,468.0,468.0,468.0,468.0,508.0,508.0,508.0,508.0,508.0,508.0,508.0,508.0,508.0,498.0,498.0,498.0,503.0,503.0,503.0,503.0,503.0,503.0,503.0,503.0,515.0,515.0,515.0,515.0,515.0,515.0,515.0,515.0,515.0,503.0,503.0,503.0,523.0,468.0,503.0,500,500,500,527.0666666666667,482.0,506.6
0,8.0,40.0,12.0,523.0,503.0,506.0,523.0,523.0,523.0,523.0,523.0,523.0,523.0,523.0,523.0,523.0,523.0,523.0,523.0,523.0,520.0,520.0,520.0,520.0,520.0,520.0,498.0,498.0,498.0,498.0,498.0,498.0,498.0,498.0,498.0,498.0,498.0,498.0,498.0,503.0,503.0,503.0,503.0,503.0,503.0,503.0,503.0,503.0,503.0,503.0,503.0,503.0,503.0,503.0,503.0,503.0,503.0,503.0,503.0,506.0,506.0,506.0,506.0,506.0,506.0,506.0,520.0,498.0,503.0,500,500,500,523.4666666666667,501.0,507.2
0,6.0,33.0,20.0,520.0,531.0,523.0,520.0,520.0,520.0,520.0,520.0,520.0,520.0,520.0,520.0,520.0,520.0,520.0,520.0,520.0,520.0,517.0,517.0,517.0,517.0,517.0,503.0,503.0,503.0,503.0,503.0,503.0,503.0,503.0,503.0,503.0,503.0,503.0,503.0,503.0,503.0,531.0,531.0,531.0,531.0,531.0,506.0,506.0,506.0,506.0,506.0,506.0,506.0,506.0,506.0,506.0,506.0,506.0,506.0,506.0,506.0,523.0,523.0,523.0,523.0,523.0,517.0,503.0,506.0,500,500,500,520.3,504.8,507.1
0,2.0,25.0,7.0,517.0,531.0,523.0,517.0,517.0,517.0,517.0,517.0,517.0,515.0,515.0,515.0,515.0,515.0,515.0,515.0,515.0,515.0,515.0,515.0,515.0,515.0,515.0,531.0,531.0,531.0,531.0,531.0,531.0,506.0,506.0,506.0,506.0,506.0,506.0,506.0,506.0,506.0,506.0,506.0,506.0,506.0,506.0,523.0,523.0,523.0,523.0,523.0,523.0,516.0,516.0,516.0,516.0,516.0,516.0,516.0,516.0,516.0,516.0,516.0,516.0,516.0,516.0,515.0,506.0,516.0,500,500,500,516.2,521.0,520.2
0,14.0,29.0,10.0,506.0,525.0,508.0,506.0,506.0,506.0,506.0,506.0,506.0,506.0,506.0,506.0,501.0,501.0,501.0,501.0,501.0,501.0,501.0,501.0,501.0,501.0,501.0,496.0,496.0,496.0,496.0,496.0,496.0,496.0,496.0,496.0,525.0,525.0,525.0,525.0,525.0,525.0,525.0,525.0,525.0,525.0,525.0,506.0,506.0,506.0,506.0,506.0,506.0,506.0,506.0,506.0,508.0,508.0,508.0,508.0,508.0,508.0,508.0,508.0,508.0,508.0,508.0,501.0,496.0,506.0,500,500,500,507.3666666666667,506.73333333333335,509.53333333333336
0,5.0,14.0,8.0,501.0,525.0,516.0,501.0,501.0,501.0,501.0,501.0,501.0,501.0,501.0,501.0,501.0,501.0,501.0,501.0,496.0,496.0,496.0,496.0,496.0,496.0,496.0,525.0,525.0,525.0,525.0,525.0,525.0,525.0,525.0,525.0,525.0,525.0,525.0,525.0,511.0,511.0,511.0,511.0,511.0,511.0,511.0,508.0,508.0,508.0,508.0,508.0,508.0,508.0,508.0,508.0,508.0,508.0,508.0,508.0,516.0,516.0,516.0,516.0,516.0,516.0,516.0,496.0,511.0,508.0,500,500,500,500.0,522.2,509.6
0,10.0,14.0,9.0,496.0,516.0,517.0,496.0,496.0,496.0,496.0,496.0,496.0,496.0,496.0,496.0,496.0,496.0,496.0,496.0,496.0,491.0,491.0,491.0,491.0,491.0,491.0,511.0,511.0,511.0,511.0,511.0,511.0,511.0,511.0,511.0,511.0,511.0,511.0,511.0,511.0,516.0,516.0,516.0,516.0,516.0,516.0,516.0,516.0,516.0,516.0,516.0,516.0,516.0,516.0,516.0,516.0,516.0,516.0,516.0,516.0,517.0,517.0,517.0,517.0,517.0,517.0,491.0,511.0,516.0,500,500,500,496.0,514.1666666666666,514.8333333333334
0,6.0,10.0,3.0,491.0,521.0,517.0,491.0,491.0,491.0,491.0,491.0,491.0,491.0,491.0,491.0,491.0,491.0,490.0,490.0,490.0,490.0,490.0,490.0,490.0,490.0,490.0,516.0,516.0,516.0,516.0,516.0,516.0,516.0,516.0,516.0,516.0,516.0,521.0,521.0,521.0,521.0,521.0,521.0,521.0,521.0,521.0,517.0,517.0,517.0,517.0,517.0,517.0,517.0,517.0,517.0,517.0,517.0,514.0,514.0,514.0,514.0,514.0,514.0,514.0,514.0,514.0,490.0,516.0,514.0,500,500,500,491.23333333333335,516.8333333333334,516.1
0,3.0,12.0,33.0,493.0,521.0,514.0,490.0,490.0,490.0,490.0,490.0,490.0,490.0,490.0,490.0,490.0,490.0,493.0,493.0,493.0,493.0,493.0,493.0,493.0,493.0,493.0,521.0,521.0,521.0,521.0,521.0,521.0,521.0,521.0,521.0,521.0,521.0,509.0,509.0,509.0,509.0,509.0,509.0,509.0,509.0,509.0,514.0,514.0,514.0,514.0,514.0,514.0,514.0,514.0,514.0,514.0,514.0,481.0,481.0,481.0,481.0,481.0,481.0,481.0,481.0,481.0,490.0,509.0,481.0,500,500,500,490.9,517.4,504.1
0,2.0,20.0,16.0,495.0,529.0,497.0,493.0,493.0,493.0,493.0,493.0,495.0,495.0,495.0,495.0,495.0,495.0,495.0,495.0,495.0,495.0,495.0,495.0,495.0,495.0,495.0,509.0,509.0,509.0,509.0,509.0,529.0,529.0,529.0,529.0,529.0,529.0,529.0,529.0,529.0,529.0,529.0,529.0,529.0,529.0,529.0,481.0,481.0,481.0,481.0,481.0,497.0,497.0,497.0,497.0,497.0,497.0,497.0,497.0,497.0,497.0,497.0,497.0,497.0,497.0,497.0,493.0,509.0,481.0,500,500,500,494.0,519.0,489.0
0,8.0,14.0,17.0,503.0,529.0,514.0,495.0,495.0,495.0,495.0,495.0,499.0,499.0,499.0,499.0,499.0,499.0,499.0,499.0,499.0,499.0,503.0,503.0,503.0,503.0,503.0,529.0,529.0,529.0,529.0,529.0,520.0,520.0,520.0,520.0,520.0,520.0,520.0,520.0,520.0,520.0,515.0,515.0,515.0,515.0,515.0,497.0,497.0,497.0,497.0,497.0,514.0,514.0,514.0,514.0,514.0,514.0,514.0,514.0,514.0,514.0,509.0,509.0,509.0,509.0,509.0,495.0,515.0,497.0,500,500,500,497.6666666666667,523.6666666666666,504.6666666666667
0,4.0,21.0,12.0,507.0,515.0,509.0,503.0,503.0,503.0,503.0,503.0,503.0,503.0,507.0,507.0,507.0,507.0,507.0,507.0,507.0,507.0,507.0,507.0,507.0,507.0,507.0,515.0,515.0,515.0,515.0,515.0,515.0,515.0,494.0,494.0,494.0,494.0,494.0,494.0,494.0,494.0,494.0,494.0,494.0,494.0,494.0,509.0,509.0,509.0,509.0,509.0,509.0,509.0,497.0,497.0,497.0,497.0,497.0,497.0,497.0,497.0,497.0,497.0,497.0,497.0,497.0,503.0,494.0,497.0,500,500,500,504.6,506.6,504.2
0,6.0,37.0,13.0,513.0,531.0,510.0,513.0,513.0,513.0,513.0,513.0,512.0,512.0,512.0,512.0,512.0,512.0,512.0,512.0,512.0,512.0,512.0,512.0,512.0,512.0,512.0,531.0,531.0,531.0,531.0,531.0,512.0,512.0,512.0,512.0,512.0,512.0,512.0,512.0,512.0,512.0,512.0,512.0,512.0,512.0,512.0,510.0,510.0,510.0,510.0,510.0,505.0,505.0,505.0,505.0,505.0,505.0,505.0,505.0,505.0,505.0,505.0,505.0,505.0,505.0,505.0,512.0,512.0,505.0,500,500,500,512.1666666666666,520.3,506.96666666666664
0,7.0,7.0,11.0,519.0,519.0,516.0,517.0,517.0,517.0,517.0,519.0,519.0,519.0,519.0,519.0,519.0,519.0,519.0,519.0,519.0,519.0,519.0,519.0,519.0,519.0,519.0,514.0,514.0,514.0,519.0,519.0,519.0,519.0,519.0,519.0,519.0,519.0,519.0,519.0,519.0,519.0,519.0,519.0,508.0,508.0,508.0,516.0,516.0,516.0,513.0,513.0,513.0,513.0,513.0,513.0,513.0,513.0,513.0,513.0,513.0,513.0,513.0,513.0,508.0,508.0,508.0,517.0,514.0,513.0,500,500,500,516.7666666666667,515.8666666666667,512.3
0,2.0,11.0,6.0,521.0,516.0,508.0,519.0,519.0,519.0,519.0,519.0,519.0,519.0,519.0,519.0,519.0,519.0,519.0,519.0,519.0,519.0,521.0,521.0,521.0,521.0,521.0,508.0,508.0,508.0,508.0,508.0,508.0,508.0,508.0,508.0,508.0,508.0,508.0,508.0,508.0,508.0,516.0,516.0,516.0,516.0,516.0,508.0,508.0,508.0,508.0,508.0,508.0,508.0,508.0,508.0,508.0,508.0,508.0,508.0,508.0,508.0,507.0,507.0,507.0,507.0,507.0,519.0,508.0,507.0,500,500,500,519.3333333333334,510.8,508.5
0,3.0,4.0,4.0,524.0,520.0,511.0,521.0,521.0,521.0,524.0,524.0,524.0,524.0,524.0,524.0,524.0,524.0,524.0,524.0,524.0,524.0,524.0,524.0,524.0,524.0,524.0,516.0,516.0,516.0,520.0,520.0,520.0,520.0,520.0,520.0,520.0,520.0,520.0,520.0,520.0,520.0,520.0,520.0,520.0,520.0,520.0,507.0,507.0,507.0,511.0,511.0,511.0,511.0,511.0,511.0,511.0,511.0,511.0,511.0,511.0,511.0,511.0,511.0,511.0,511.0,511.0,521.0,516.0,507.0,500,500,500,522.7,518.2666666666667,509.26666666666665
0,4.0,14.0,24.0,523.0,520.0,535.0,523.0,523.0,523.0,523.0,523.0,523.0,523.0,523.0,520.0,520.0,520.0,520.0,520.0,520.0,520.0,520.0,520.0,520.0,520.0,520.0,506.0,506.0,506.0,506.0,506.0,506.0,506.0,506.0,520.0,520.0,520.0,520.0,520.0,520.0,520.0,520.0,520.0,520.0,520.0,520.0,511.0,511.0,511.0,511.0,511.0,511.0,511.0,511.0,535.0,535.0,535.0,535.0,535.0,535.0,535.0,535.0,535.0,535.0,535.0,535.0,520.0,506.0,511.0,500,500,500,522.1333333333333,516.2666666666667,520.6
0,5.0,17.0,15.0,520.0,520.0,535.0,520.0,520.0,520.0,520.0,520.0,515.0,515.0,515.0,515.0,515.0,515.0,515.0,515.0,515.0,515.0,515.0,515.0,515.0,515.0,515.0,520.0,520.0,520.0,520.0,520.0,503.0,503.0,503.0,503.0,503.0,503.0,503.0,503.0,503.0,503.0,503.0,503.0,503.0,503.0,503.0,535.0,535.0,535.0,535.0,535.0,520.0,520.0,520.0,520.0,520.0,520.0,520.0,520.0,520.0,520.0,520.0,520.0,520.0,520.0,520.0,515.0,503.0,520.0,500,500,500,517.6666666666666,512.0666666666667,528.0
0,5.0,30.0,13.0,512.0,533.0,528.0,510.0,510.0,510.0,510.0,510.0,510.0,510.0,510.0,512.0,512.0,512.0,512.0,512.0,512.0,512.0,512.0,512.0,512.0,512.0,512.0,533.0,533.0,533.0,533.0,533.0,533.0,533.0,533.0,510.0,510.0,510.0,510.0,510.0,510.0,510.0,510.0,510.0,510.0,510.0,510.0,515.0,515.0,515.0,515.0,515.0,515.0,515.0,515.0,528.0,528.0,528.0,528.0,528.0,528.0,528.0,528.0,528.0,528.0,528.0,528.0,510.0,510.0,515.0,500,500,500,512.4,514.5666666666667,521.4333333333333
0,13.0,23.0,31.0,512.0,522.0,528.0,512.0,512.0,512.0,512.0,512.0,512.0,512.0,512.0,504.0,504.0,504.0,504.0,504.0,504.0,504.0,504.0,504.0,504.0,504.0,499.0,510.0,510.0,510.0,510.0,510.0,510.0,510.0,510.0,522.0,522.0,522.0,522.0,522.0,522.0,522.0,522.0,522.0,522.0,522.0,513.0,528.0,528.0,528.0,528.0,528.0,528.0,528.0,528.0,519.0,519.0,519.0,519.0,519.0,519.0,519.0,519.0,519.0,519.0,519.0,497.0,499.0,510.0,497.0,500,500,500,508.56666666666666,515.2666666666667,523.2333333333333
0,10.0,9.0,22.0,499.0,520.0,498.0,499.0,499.0,499.0,499.0,499.0,499.0,499.0,499.0,499.0,499.0,499.0,499.0,499.0,499.0,494.0,494.0,494.0,494.0,494.0,494.0,513.0,513.0,513.0,513.0,513.0,513.0,513.0,513.0,513.0,513.0,513.0,513.0,513.0,513.0,520.0,520.0,520.0,520.0,520.0,520.0,497.0,497.0,497.0,497.0,497.0,497.0,497.0,497.0,497.0,497.0,497.0,497.0,497.0,497.0,498.0,498.0,498.0,498.0,498.0,498.0,494.0,513.0,497.0,500,500,500,498.8333333333333,515.9,500.8666666666667
0,10.0,10.0,3.0,499.0,523.0,498.0,499.0,499.0,499.0,499.0,494.0,494.0,494.0,494.0,494.0,494.0,494.0,494.0,494.0,494.0,494.0,494.0,489.0,489.0,489.0,489.0,513.0,513.0,513.0,513.0,520.0,520.0,520.0,520.0,520.0,520.0,520.0,520.0,520.0,520.0,520.0,520.0,523.0,523.0,523.0,523.0,497.0,497.0,497.0,498.0,498.0,498.0,498.0,498.0,498.0,498.0,498.0,498.0,498.0,498.0,498.0,498.0,495.0,495.0,495.0,495.0,489.0,513.0,495.0,500,500,500,496.1666666666667,516.7,497.3
0,3.0,5.0,26.0,492.0,528.0,521.0,489.0,489.0,489.0,489.0,489.0,489.0,489.0,489.0,492.0,492.0,492.0,492.0,492.0,492.0,492.0,492.0,492.0,492.0,492.0,492.0,523.0,523.0,523.0,523.0,523.0,523.0,523.0,523.0,528.0,528.0,528.0,528.0,528.0,528.0,528.0,528.0,528.0,528.0,528.0,528.0,495.0,495.0,495.0,495.0,495.0,495.0,495.0,495.0,521.0,521.0,521.0,521.0,521.0,521.0,521.0,521.0,521.0,521.0,521.0,521.0,489.0,523.0,495.0,500,500,500,490.1,524.8333333333334,504.53333333333336
0,4.0,11.0,33.0,496.0,519.0,510.0,492.0,492.0,492.0,492.0,492.0,492.0,492.0,492.0,492.0,492.0,492.0,492.0,496.0,496.0,496.0,496.0,496.0,496.0,496.0,496.0,519.0,519.0,519.0,519.0,519.0,519.0,519.0,519.0,519.0,519.0,519.0,519.0,517.0,517.0,517.0,517.0,517.0,517.0,517.0,517.0,510.0,510.0,510.0,510.0,510.0,510.0,510.0,510.0,510.0,510.0,510.0,510.0,488.0,488.0,488.0,488.0,488.0,488.0,488.0,488.0,492.0,517.0,488.0,500,500,500,493.06666666666666,521.4666666666667,507.8
0,10.0,18.0,15.0,506.0,535.0,503.0,501.0,501.0,501.0,506.0,506.0,506.0,506.0,506.0,506.0,506.0,506.0,506.0,506.0,506.0,506.0,506.0,506.0,506.0,506.0,506.0,523.0,523.0,523.0,535.0,535.0,535.0,535.0,535.0,535.0,535.0,535.0,535.0,535.0,535.0,535.0,535.0,535.0,535.0,535.0,535.0,503.0,503.0,502.0,502.0,502.0,502.0,502.0,502.0,502.0,502.0,502.0,502.0,502.0,502.0,502.0,502.0,502.0,502.0,502.0,502.0,501.0,523.0,502.0,500,500,500,502.5,528.0,498.96666666666664
0,7.0,28.0,13.0,513.0,535.0,515.0,506.0,509.0,509.0,509.0,509.0,509.0,509.0,509.0,509.0,509.0,509.0,509.0,513.0,513.0,513.0,513.0,513.0,513.0,513.0,513.0,535.0,507.0,507.0,507.0,507.0,507.0,507.0,507.0,507.0,507.0,507.0,507.0,514.0,514.0,514.0,514.0,514.0,514.0,514.0,514.0,502.0,514.0,514.0,514.0,514.0,514.0,514.0,514.0,514.0,514.0,514.0,514.0,515.0,515.0,515.0,515.0,515.0,515.0,515.0,515.0,506.0,507.0,502.0,500,500,500,508.46666666666664,519.3666666666667,509.3666666666667
0,5.0,2.0,10.0,518.0,516.0,515.0,513.0,518.0,518.0,518.0,518.0,518.0,518.0,518.0,518.0,518.0,518.0,518.0,518.0,518.0,518.0,518.0,518.0,518.0,518.0,518.0,514.0,516.0,516.0,516.0,516.0,516.0,516.0,516.0,516.0,516.0,516.0,516.0,516.0,516.0,516.0,516.0,516.0,516.0,516.0,516.0,515.0,505.0,505.0,505.0,505.0,505.0,505.0,505.0,505.0,505.0,505.0,505.0,505.0,505.0,505.0,505.0,505.0,505.0,505.0,505.0,513.0,514.0,505.0,500,500,500,515.6666666666666,515.0666666666667,509.6666666666667
0,6.0,31.0,12.0,521.0,519.0,517.0,515.0,515.0,515.0,515.0,515.0,515.0,515.0,515.0,521.0,521.0,521.0,521.0,521.0,521.0,521.0,521.0,521.0,521.0,521.0,521.0,519.0,519.0,519.0,519.0,519.0,519.0,519.0,519.0,488.0,488.0,488.0,488.0,488.0,488.0,488.0,488.0,488.0,488.0,488.0,488.0,516.0,516.0,516.0,516.0,516.0,516.0,516.0,516.0,517.0,517.0,517.0,517.0,517.0,517.0,517.0,517.0,517.0,517.0,517.0,517.0,515.0,488.0,516.0,500,500,500,518.0,506.0,514.2
0,8.0,31.0,7.0,523.0,503.0,517.0,521.0,521.0,521.0,521.0,521.0,521.0,521.0,521.0,521.0,521.0,521.0,521.0,521.0,521.0,523.0,523.0,523.0,523.0,523.0,523.0,488.0,488.0,488.0,488.0,488.0,488.0,488.0,488.0,488.0,488.0,488.0,488.0,488.0,488.0,503.0,503.0,503.0,503.0,503.0,503.0,517.0,517.0,517.0,517.0,517.0,517.0,517.0,517.0,517.0,517.0,517.0,517.0,517.0,517.0,510.0,510.0,510.0,510.0,510.0,510.0,521.0,488.0,510.0,500,500,500,520.4,493.6333333333333,516.1666666666666
0,1.0,11.0,3.0,523.0,514.0,510.0,523.0,523.0,523.0,523.0,523.0,523.0,523.0,523.0,523.0,523.0,523.0,523.0,522.0,522.0,522.0,522.0,522.0,522.0,522.0,522.0,503.0,503.0,503.0,503.0,503.0,503.0,503.0,503.0,503.0,503.0,503.0,503.0,514.0,514.0,514.0,514.0,514.0,514.0,514.0,514.0,510.0,510.0,510.0,510.0,510.0,510.0,510.0,510.0,510.0,510.0,510.0,510.0,507.0,507.0,507.0,507.0,507.0,507.0,507.0,507.0,522.0,503.0,507.0,500,500,500,522.7333333333333,505.93333333333334,509.2
0,3.0,15.0,30.0,522.0,518.0,507.0,522.0,522.0,522.0,522.0,522.0,522.0,522.0,522.0,522.0,522.0,522.0,522.0,522.0,522.0,522.0,522.0,522.0,522.0,522.0,520.0,514.0,514.0,514.0,514.0,514.0,514.0,514.0,514.0,514.0,514.0,514.0,514.0,514.0,514.0,514.0,514.0,514.0,514.0,514.0,518.0,507.0,507.0,507.0,507.0,507.0,507.0,507.0,507.0,507.0,507.0,507.0,507.0,507.0,507.0,507.0,507.0,507.0,507.0,507.0,480.0,520.0,514.0,480.0,500,500,500,522.0666666666667,512.6666666666666,506.5
0,5.0,27.0,37.0,525.0,518.0,517.0,520.0,520.0,520.0,520.0,520.0,520.0,520.0,520.0,520.0,520.0,520.0,525.0,525.0,525.0,525.0,525.0,525.0,525.0,525.0,525.0,518.0,518.0,518.0,518.0,518.0,518.0,518.0,518.0,518.0,518.0,518.0,491.0,491.0,491.0,491.0,491.0,491.0,491.0,491.0,491.0,480.0,480.0,480.0,480.0,480.0,480.0,480.0,480.0,480.0,480.0,480.0,517.0,517.0,517.0,517.0,517.0,517.0,517.0,517.0,517.0,520.0,491.0,480.0,500,500,500,521.3666666666667,511.3,491.3333333333333
0,2.0,2.0,4.0,525.0,491.0,517.0,525.0,525.0,525.0,525.0,525.0,525.0,525.0,525.0,525.0,525.0,525.0,525.0,525.0,525.0,525.0,525.0,523.0,523.0,523.0,523.0,491.0,491.0,491.0,491.0,491.0,491.0,491.0,491.0,491.0,491.0,491.0,491.0,491.0,491.0,491.0,491.0,489.0,489.0,489.0,489.0,517.0,517.0,517.0,517.0,517.0,517.0,517.0,517.0,517.0,517.0,517.0,517.0,517.0,517.0,517.0,517.0,513.0,513.0,513.0,513.0,523.0,489.0,513.0,500,500,500,524.8,490.8,516.6
0,6.0,8.0,10.0,523.0,489.0,513.0,523.0,523.0,523.0,523.0,523.0,523.0,523.0,523.0,523.0,523.0,519.0,519.0,519.0,519.0,519.0,519.0,519.0,519.0,519.0,519.0,489.0,489.0,489.0,489.0,489.0,489.0,489.0,489.0,489.0,489.0,483.0,483.0,483.0,483.0,483.0,483.0,483.0,483.0,483.0,483.0,513.0,513.0,513.0,513.0,513.0,513.0,513.0,513.0,513.0,513.0,507.0,507.0,507.0,507.0,507.0,507.0,507.0,507.0,507.0,507.0,519.0,483.0,507.0,500,500,500,522.6,488.26666666666665,512.5333333333333
0,2.0,5.0,12.0,519.0,483.0,519.0,519.0,519.0,519.0,519.0,519.0,519.0,519.0,519.0,517.0,517.0,517.0,517.0,517.0,517.0,517.0,517.0,517.0,517.0,517.0,515.0,483.0,483.0,483.0,483.0,483.0,483.0,483.0,483.0,478.0,478.0,478.0,478.0,478.0,478.0,478.0,478.0,478.0,478.0,505.0,505.0,507.0,507.0,507.0,507.0,507.0,507.0,507.0,507.0,519.0,519.0,519.0,519.0,519.0,519.0,519.0,519.0,519.0,519.0,510.0,510.0,517.0,478.0,507.0,500,500,500,518.3333333333334,481.3333333333333,511.0
0,6.0,27.0,9.0,515.0,505.0,511.0,515.0,515.0,515.0,515.0,515.0,515.0,511.0,511.0,511.0,511.0,511.0,511.0,511.0,511.0,511.0,511.0,511.0,511.0,511.0,511.0,505.0,505.0,505.0,505.0,505.0,505.0,496.0,496.0,496.0,496.0,496.0,496.0,496.0,496.0,496.0,496.0,496.0,496.0,496.0,496.0,510.0,510.0,510.0,510.0,510.0,510.0,511.0,511.0,511.0,511.0,511.0,511.0,511.0,511.0,511.0,511.0,511.0,511.0,511.0,511.0,511.0,496.0,510.0,500,500,500,513.2,499.9,510.76666666666665
0,15.0,6.0,7.0,503.0,502.0,509.0,503.0,503.0,503.0,503.0,496.0,496.0,496.0,496.0,496.0,496.0,496.0,496.0,496.0,496.0,496.0,496.0,496.0,496.0,496.0,496.0,496.0,496.0,496.0,496.0,502.0,502.0,502.0,502.0,502.0,502.0,502.0,502.0,502.0,502.0,502.0,502.0,502.0,502.0,502.0,502.0,509.0,509.0,509.0,509.0,504.0,504.0,504.0,504.0,504.0,504.0,504.0,504.0,504.0,504.0,504.0,504.0,504.0,504.0,504.0,504.0,496.0,496.0,504.0,500,500,500,501.1,499.0,506.9
0,3.0,10.0,4.0,494.0,507.0,505.0,494.0,494.0,494.0,494.0,494.0,494.0,494.0,494.0,494.0,494.0,494.0,494.0,494.0,493.0,493.0,493.0,493.0,493.0,493.0,493.0,507.0,507.0,507.0,507.0,507.0,507.0,507.0,507.0,507.0,507.0,507.0,507.0,507.0,497.0,497.0,497.0,497.0,497.0,497.0,497.0,505.0,505.0,505.0,505.0,505.0,505.0,505.0,505.0,505.0,505.0,505.0,505.0,505.0,501.0,501.0,501.0,501.0,501.0,501.0,501.0,493.0,497.0,501.0,500,500,500,494.43333333333334,503.0,503.73333333333335
0,0.0,19.0,0.0,493.0,516.0,501.0,493.0,493.0,493.0,493.0,493.0,493.0,493.0,493.0,493.0,493.0,493.0,493.0,493.0,493.0,493.0,493.0,493.0,493.0,493.0,493.0,497.0,497.0,497.0,497.0,497.0,497.0,497.0,497.0,497.0,497.0,516.0,516.0,516.0,516.0,516.0,516.0,516.0,516.0,516.0,516.0,501.0,501.0,501.0,501.0,501.0,501.0,501.0,501.0,501.0,501.0,501.0,501.0,501.0,501.0,501.0,501.0,501.0,501.0,501.0,501.0,493.0,497.0,501.0,500,500,500,493.0,503.3333333333333,501.0
0,3.0,28.0,4.0,496.0,516.0,505.0,493.0,493.0,493.0,493.0,496.0,496.0,496.0,496.0,496.0,496.0,496.0,496.0,496.0,496.0,496.0,496.0,496.0,496.0,496.0,496.0,516.0,516.0,516.0,516.0,488.0,488.0,488.0,488.0,488.0,488.0,488.0,488.0,488.0,488.0,488.0,488.0,488.0,488.0,488.0,488.0,501.0,501.0,501.0,501.0,505.0,505.0,505.0,505.0,505.0,505.0,505.0,505.0,505.0,505.0,505.0,505.0,505.0,505.0,505.0,505.0,493.0,488.0,501.0,500,500,500,494.5,502.0,503.0
0,9.0,8.0,10.0,505.0,496.0,508.0,496.0,496.0,496.0,496.0,496.0,496.0,502.0,502.0,502.0,502.0,502.0,505.0,505.0,505.0,505.0,505.0,505.0,505.0,505.0,505.0,488.0,488.0,488.0,488.0,488.0,488.0,496.0,496.0,496.0,496.0,496.0,492.0,492.0,492.0,492.0,492.0,492.0,492.0,492.0,492.0,505.0,505.0,505.0,505.0,505.0,505.0,508.0,508.0,508.0,508.0,508.0,498.0,498.0,498.0,498.0,498.0,498.0,498.0,498.0,498.0,496.0,488.0,498.0,500,500,500,499.6,490.6666666666667,503.73333333333335
0,2.0,10.0,3.0,505.0,502.0,498.0,505.0,505.0,505.0,505.0,505.0,505.0,505.0,505.0,505.0,505.0,505.0,505.0,505.0,505.0,505.0,503.0,503.0,503.0,503.0,503.0,492.0,492.0,492.0,492.0,492.0,492.0,492.0,492.0,492.0,492.0,492.0,492.0,492.0,492.0,492.0,502.0,502.0,502.0,502.0,502.0,498.0,498.0,498.0,498.0,498.0,498.0,498.0,498.0,498.0,498.0,498.0,498.0,498.0,498.0,498.0,495.0,495.0,495.0,495.0,495.0,503.0,492.0,495.0,500,500,500,504.6666666666667,493.6666666666667,497.5
0,1.0,20.0,3.0,504.0,522.0,495.0,503.0,503.0,503.0,503.0,503.0,503.0,503.0,503.0,503.0,503.0,503.0,503.0,503.0,503.0,503.0,504.0,504.0,504.0,504.0,504.0,502.0,502.0,502.0,502.0,502.0,502.0,502.0,502.0,502.0,502.0,502.0,502.0,502.0,502.0,502.0,522.0,522.0,522.0,522.0,522.0,495.0,495.0,495.0,495.0,495.0,495.0,495.0,495.0,495.0,495.0,495.0,495.0,495.0,495.0,495.0,492.0,492.0,492.0,492.0,492.0,503.0,502.0,492.0,500,500,500,503.1333333333333,504.6666666666667,494.6
0,11.0,20.0,11.0,514.0,522.0,503.0,504.0,504.0,504.0,504.0,504.0,504.0,504.0,504.0,504.0,504.0,514.0,514.0,514.0,514.0,514.0,514.0,514.0,514.0,514.0,514.0,522.0,522.0,522.0,522.0,522.0,522.0,522.0,522.0,522.0,522.0,509.0,509.0,509.0,509.0,509.0,509.0,509.0,509.0,509.0,509.0,492.0,492.0,492.0,492.0,492.0,492.0,492.0,492.0,492.0,492.0,503.0,503.0,503.0,503.0,503.0,503.0,503.0,503.0,503.0,503.0,504.0,509.0,492.0,500,500,500,507.26666666666665,516.3333333333334,495.8666666666667
0,20.0,13.0,8.0,514.0,522.0,511.0,514.0,514.0,514.0,514.0,514.0,514.0,514.0,514.0,514.0,514.0,514.0,514.0,514.0,494.0,494.0,494.0,494.0,494.0,494.0,494.0,509.0,509.0,509.0,509.0,509.0,509.0,509.0,509.0,509.0,509.0,509.0,509.0,509.0,522.0,522.0,522.0,522.0,522.0,522.0,522.0,503.0,503.0,503.0,503.0,503.0,503.0,503.0,503.0,503.0,503.0,503.0,503.0,503.0,511.0,511.0,511.0,511.0,511.0,511.0,511.0,494.0,509.0,503.0,500,500,500,509.3333333333333,512.0333333333333,504.8666666666667
0,3.0,9.0,11.0,495.0,522.0,511.0,494.0,494.0,494.0,495.0,495.0,495.0,495.0,495.0,495.0,495.0,495.0,495.0,495.0,495.0,492.0,492.0,492.0,492.0,492.0,492.0,522.0,522.0,522.0,522.0,522.0,522.0,522.0,522.0,522.0,522.0,522.0,522.0,522.0,522.0,513.0,513.0,513.0,513.0,513.0,513.0,511.0,511.0,511.0,500.0,500.0,500.0,500.0,500.0,500.0,500.0,500.0,500.0,500.0,500.0,502.0,502.0,502.0,502.0,502.0,502.0,492.0,513.0,500.0,500,500,500,494.3333333333333,521.4,505.26666666666665
0,1.0,15.0,11.0,493.0,513.0,513.0,492.0,492.0,492.0,492.0,492.0,492.0,492.0,493.0,493.0,493.0,493.0,493.0,493.0,493.0,493.0,493.0,493.0,493.0,493.0,493.0,513.0,513.0,513.0,513.0,513.0,513.0,513.0,498.0,498.0,498.0,498.0,498.0,498.0,498.0,498.0,498.0,498.0,498.0,498.0,498.0,502.0,502.0,502.0,502.0,502.0,502.0,502.0,513.0,513.0,513.0,513.0,513.0,513.0,513.0,513.0,513.0,513.0,513.0,513.0,513.0,492.0,498.0,502.0,500,500,500,492.43333333333334,506.5,506.76666666666665
0,10.0,7.0,18.0,503.0,502.0,511.0,495.0,495.0,495.0,495.0,495.0,495.0,495.0,495.0,503.0,503.0,503.0,503.0,503.0,503.0,503.0,503.0,503.0,503.0,503.0,503.0,495.0,495.0,495.0,495.0,495.0,495.0,495.0,495.0,502.0,502.0,502.0,502.0,502.0,502.0,502.0,502.0,502.0,502.0,502.0,502.0,511.0,511.0,511.0,511.0,511.0,511.0,511.0,511.0,495.0,495.0,495.0,495.0,495.0,495.0,495.0,495.0,495.0,495.0,495.0,495.0,495.0,495.0,495.0,500,500,500,497.6666666666667,498.6,505.1333333333333
0,11.0,20.0,11.0,514.0,522.0,503.0,503.0,503.0,504.0,504.0,504.0,504.0,504.0,504.0,504.0,504.0,514.0,514.0,514.0,514.0,514.0,514.0,514.0,514.0,514.0,514.0,502.0,502.0,522.0,522.0,522.0,522.0,522.0,522.0,522.0,509.0,509.0,509.0,509.0,509.0,509.0,509.0,509.0,509.0,509.0,509.0,495.0,495.0,492.0,492.0,492.0,492.0,492.0,492.0,492.0,503.0,503.0,503.0,503.0,503.0,503.0,503.0,503.0,503.0,503.0,503.0,503.0,502.0,492.0,500,500,500,506.56666666666666,509.43333333333334,496.6
0,3.0,34.0,14.0,514.0,543.0,517.0,514.0,514.0,514.0,514.0,514.0,511.0,511.0,511.0,511.0,511.0,511.0,511.0,511.0,511.0,511.0,511.0,511.0,511.0,511.0,511.0,512.0,512.0,512.0,512.0,512.0,543.0,543.0,543.0,543.0,543.0,543.0,543.0,543.0,543.0,543.0,543.0,543.0,543.0,543.0,543.0,514.0,514.0,514.0,514.0,514.0,517.0,517.0,517.0,517.0,517.0,517.0,517.0,517.0,517.0,517.0,517.0,517.0,517.0,517.0,517.0,511.0,512.0,514.0,500,500,500,512.7,524.6333333333333,512.3666666666667
0,6.0,21.0,10.0,517.0,524.0,514.0,514.0,514.0,514.0,514.0,514.0,514.0,514.0,514.0,514.0,514.0,517.0,517.0,517.0,517.0,517.0,517.0,517.0,517.0,517.0,517.0,524.0,524.0,524.0,524.0,524.0,524.0,524.0,524.0,524.0,524.0,522.0,522.0,522.0,522.0,522.0,522.0,522.0,522.0,522.0,522.0,507.0,507.0,507.0,507.0,507.0,507.0,507.0,507.0,507.0,507.0,514.0,514.0,514.0,514.0,514.0,514.0,514.0,514.0,514.0,514.0,514.0,522.0,507.0,500,500,500,514.2,528.4,512.0
0,6.0,35.0,10.0,520.0,522.0,517.0,517.0,517.0,517.0,517.0,517.0,517.0,520.0,520.0,520.0,520.0,520.0,520.0,520.0,519.0,519.0,519.0,519.0,519.0,519.0,519.0,522.0,522.0,522.0,522.0,522.0,522.0,489.0,489.0,489.0,489.0,489.0,489.0,489.0,494.0,494.0,494.0,494.0,494.0,494.0,494.0,514.0,514.0,514.0,514.0,514.0,514.0,517.0,517.0,517.0,517.0,517.0,517.0,517.0,516.0,516.0,516.0,516.0,516.0,516.0,516.0,517.0,489.0,514.0,500,500,500,518.0333333333333,508.6,515.2
0,1.0,18.0,23.0,520.0,512.0,493.0,520.0,520.0,520.0,520.0,520.0,520.0,520.0,520.0,520.0,520.0,520.0,520.0,520.0,520.0,520.0,520.0,520.0,520.0,520.0,520.0,512.0,512.0,512.0,512.0,512.0,512.0,512.0,512.0,512.0,512.0,512.0,512.0,512.0,512.0,512.0,512.0,512.0,512.0,512.0,512.0,493.0,493.0,493.0,493.0,493.0,493.0,493.0,493.0,493.0,493.0,493.0,493.0,493.0,493.0,493.0,493.0,493.0,493.0,493.0,493.0,520.0,512.0,493.0,500,500,500,519.6666666666666,506.0,500.6666666666667
0,3.0,18.0,16.0,519.0,499.0,506.0,519.0,519.0,519.0,519.0,519.0,519.0,519.0,519.0,517.0,517.0,517.0,517.0,517.0,517.0,517.0,517.0,517.0,517.0,517.0,517.0,494.0,494.0,494.0,494.0,494.0,494.0,494.0,494.0,499.0,499.0,499.0,499.0,499.0,499.0,499.0,499.0,499.0,499.0,499.0,499.0,506.0,506.0,506.0,506.0,506.0,506.0,506.0,506.0,490.0,490.0,490.0,490.0,490.0,490.0,490.0,490.0,490.0,490.0,490.0,490.0,517.0,494.0,490.0,500,500,500,518.5333333333333,502.0,495.26666666666665
0,5.0,13.0,5.0,515.0,508.0,495.0,515.0,515.0,515.0,515.0,515.0,515.0,515.0,515.0,512.0,512.0,512.0,512.0,512.0,512.0,512.0,512.0,512.0,512.0,510.0,510.0,508.0,508.0,508.0,508.0,508.0,508.0,508.0,495.0,495.0,495.0,495.0,495.0,495.0,495.0,495.0,495.0,495.0,495.0,513.0,513.0,493.0,493.0,493.0,493.0,493.0,493.0,493.0,495.0,495.0,495.0,495.0,495.0,495.0,495.0,495.0,495.0,495.0,495.0,499.0,499.0,512.0,495.0,493.0,500,500,500,514.4666666666667,499.8,492.8
0,8.0,30.0,11.0,510.0,525.0,499.0,510.0,510.0,510.0,510.0,510.0,510.0,510.0,510.0,510.0,510.0,504.0,504.0,504.0,504.0,504.0,504.0,504.0,504.0,504.0,504.0,513.0,513.0,513.0,513.0,513.0,513.0,513.0,513.0,513.0,513.0,525.0,525.0,525.0,525.0,525.0,525.0,525.0,525.0,525.0,525.0,499.0,499.0,499.0,499.0,499.0,499.0,499.0,499.0,499.0,499.0,488.0,488.0,488.0,488.0,488.0,488.0,488.0,488.0,488.0,488.0,504.0,513.0,488.0,500,500,500,508.73333333333335,511.8,494.6333333333333
0,4.0,3.0,4.0,504.0,525.0,492.0,504.0,504.0,504.0,504.0,504.0,500.0,500.0,500.0,500.0,500.0,500.0,500.0,500.0,500.0,500.0,500.0,500.0,500.0,500.0,500.0,525.0,525.0,525.0,525.0,525.0,522.0,522.0,522.0,522.0,522.0,522.0,522.0,522.0,522.0,522.0,522.0,522.0,522.0,522.0,522.0,488.0,488.0,488.0,488.0,488.0,492.0,492.0,492.0,492.0,492.0,492.0,492.0,492.0,492.0,492.0,492.0,492.0,492.0,492.0,492.0,500.0,522.0,488.0,500,500,500,502.0,523.5,490.0
0,4.0,16.0,13.0,497.0,529.0,505.0,497.0,497.0,497.0,497.0,497.0,496.0,496.0,496.0,496.0,496.0,496.0,496.0,496.0,496.0,496.0,496.0,496.0,496.0,496.0,496.0,529.0,529.0,529.0,529.0,529.0,513.0,513.0,513.0,513.0,513.0,513.0,513.0,513.0,513.0,513.0,513.0,513.0,513.0,513.0,513.0,498.0,498.0,498.0,498.0,498.0,505.0,505.0,505.0,505.0,505.0,505.0,505.0,505.0,505.0,505.0,505.0,505.0,505.0,505.0,505.0,496.0,513.0,498.0,500,500,500,497.03333333333336,520.3666666666667,500.26666666666665
0,0.0,6.0,12.0,496.0,513.0,506.0,496.0,496.0,496.0,496.0,496.0,496.0,496.0,496.0,496.0,496.0,496.0,496.0,496.0,496.0,496.0,496.0,496.0,496.0,496.0,496.0,513.0,513.0,513.0,512.0,512.0,512.0,512.0,512.0,512.0,512.0,507.0,507.0,507.0,507.0,507.0,507.0,507.0,507.0,507.0,507.0,505.0,505.0,505.0,506.0,506.0,506.0,506.0,506.0,506.0,506.0,494.0,494.0,494.0,494.0,494.0,494.0,494.0,494.0,494.0,494.0,496.0,507.0,494.0,500,500,500,496.0,511.3,502.3666666666667
0,4.0,1.0,15.0,500.0,508.0,509.0,496.0,496.0,496.0,496.0,500.0,500.0,500.0,500.0,500.0,500.0,500.0,500.0,500.0,500.0,500.0,500.0,500.0,500.0,500.0,500.0,507.0,507.0,507.0,507.0,508.0,508.0,508.0,508.0,508.0,508.0,508.0,508.0,508.0,508.0,508.0,508.0,508.0,508.0,508.0,508.0,494.0,494.0,494.0,494.0,509.0,509.0,509.0,509.0,509.0,509.0,509.0,509.0,509.0,509.0,509.0,509.0,509.0,509.0,509.0,509.0,496.0,507.0,494.0,500,500,500,497.8666666666667,507.46666666666664,501.0
0,3.0,11.0,15.0,503.0,517.0,502.0,501.0,501.0,501.0,501.0,501.0,501.0,501.0,501.0,501.0,501.0,501.0,501.0,501.0,501.0,503.0,503.0,503.0,503.0,503.0,503.0,506.0,506.0,506.0,506.0,506.0,506.0,506.0,506.0,506.0,506.0,506.0,506.0,506.0,506.0,517.0,517.0,517.0,517.0,517.0,517.0,494.0,494.0,494.0,494.0,494.0,494.0,494.0,494.0,494.0,494.0,494.0,494.0,494.0,494.0,502.0,502.0,502.0,502.0,502.0,502.0,501.0,506.0,494.0,500,500,500,501.1,508.8,500.1
0,10.0,22.0,8.0,511.0,517.0,502.0,503.0,503.0,503.0,503.0,503.0,503.0,503.0,503.0,503.0,503.0,503.0,503.0,503.0,503.0,503.0,511.0,511.0,511.0,511.0,511.0,517.0,517.0,517.0,517.0,517.0,517.0,517.0,517.0,517.0,517.0,517.0,517.0,517.0,517.0,517.0,495.0,495.0,495.0,495.0,495.0,502.0,502.0,502.0,502.0,502.0,502.0,502.0,502.0,502.0,502.0,502.0,502.0,502.0,502.0,502.0,500.0,500.0,500.0,500.0,500.0,503.0,495.0,500.0,500,500,500,503.8666666666667,512.9666666666667,500.93333333333334
0,8.0,22.0,2.0,516.0,526.0,506.0,503.0,503.0,503.0,503.0,511.0,511.0,511.0,511.0,511.0,511.0,511.0,511.0,511.0,511.0,511.0,511.0,511.0,516.0,516.0,516.0,517.0,517.0,517.0,517.0,495.0,495.0,495.0,495.0,495.0,495.0,495.0,495.0,495.0,495.0,495.0,495.0,495.0,526.0,526.0,526.0,502.0,502.0,502.0,502.0,500.0,500.0,500.0,500.0,500.0,500.0,500.0,500.0,500.0,500.0,500.0,500.0,500.0,506.0,506.0,506.0,503.0,495.0,500.0,500,500,500,507.0,506.3,501.1333333333333
0,5.0,31.0,7.0,516.0,526.0,507.0,511.0,516.0,516.0,516.0,516.0,516.0,516.0,516.0,516.0,516.0,516.0,516.0,516.0,516.0,514.0,514.0,514.0,514.0,514.0,514.0,495.0,526.0,526.0,526.0,526.0,526.0,526.0,526.0,526.0,526.0,526.0,526.0,526.0,517.0,517.0,517.0,517.0,517.0,517.0,517.0,500.0,506.0,506.0,506.0,506.0,506.0,506.0,506.0,506.0,506.0,506.0,506.0,506.0,507.0,507.0,507.0,507.0,507.0,507.0,507.0,511.0,495.0,500.0,500,500,500,513.8,512.7,503.7
0,4.0,1.0,9.0,523.0,516.0,516.0,518.0,518.0,518.0,518.0,518.0,518.0,518.0,518.0,518.0,518.0,518.0,518.0,518.0,518.0,518.0,518.0,518.0,523.0,523.0,523.0,516.0,516.0,516.0,516.0,516.0,516.0,516.0,516.0,516.0,516.0,516.0,516.0,516.0,516.0,516.0,516.0,516.0,499.0,499.0,499.0,516.0,516.0,516.0,516.0,516.0,516.0,516.0,516.0,516.0,516.0,516.0,516.0,516.0,516.0,516.0,516.0,516.0,501.0,501.0,501.0,514.0,516.0,501.0,500,500,500,516.5333333333333,516.3666666666667,512.7
0,5.0,17.0,16.0,523.0,501.0,517.0,523.0,523.0,523.0,523.0,523.0,523.0,523.0,523.0,523.0,523.0,523.0,523.0,523.0,523.0,523.0,523.0,523.0,523.0,522.0,522.0,499.0,499.0,499.0,499.0,499.0,499.0,499.0,499.0,499.0,499.0,499.0,499.0,499.0,499.0,499.0,499.0,499.0,499.0,501.0,501.0,501.0,501.0,501.0,501.0,501.0,501.0,501.0,501.0,501.0,501.0,501.0,501.0,501.0,501.0,501.0,501.0,501.0,501.0,517.0,517.0,522.0,499.0,501.0,500,500,500,521.2666666666667,504.8,507.06666666666666
0,9.0,17.0,16.0,527.0,506.0,517.0,523.0,523.0,523.0,523.0,523.0,523.0,523.0,522.0,522.0,522.0,522.0,522.0,522.0,522.0,522.0,527.0,527.0,527.0,527.0,527.0,499.0,499.0,499.0,499.0,499.0,499.0,499.0,501.0,501.0,501.0,501.0,501.0,501.0,501.0,501.0,506.0,506.0,506.0,506.0,506.0,501.0,501.0,501.0,501.0,501.0,501.0,501.0,517.0,517.0,517.0,517.0,517.0,517.0,517.0,517.0,504.0,504.0,504.0,504.0,504.0,522.0,499.0,501.0,500,500,500,522.8,500.3,506.1
0,4.0,2.0,13.0,527.0,506.0,517.0,527.0,527.0,527.0,527.0,527.0,527.0,527.0,527.0,527.0,527.0,527.0,527.0,527.0,523.0,523.0,523.0,523.0,523.0,523.0,523.0,506.0,506.0,506.0,506.0,506.0,506.0,506.0,506.0,506.0,506.0,506.0,506.0,506.0,504.0,504.0,504.0,504.0,504.0,504.0,504.0,504.0,504.0,504.0,504.0,504.0,504.0,504.0,504.0,504.0,504.0,504.0,504.0,504.0,517.0,517.0,517.0,517.0,517.0,517.0,517.0,523.0,504.0,504.0,500,500,500,526.2,505.6,506.6
0,1.0,24.0,4.0,524.0,504.0,521.0,523.0,523.0,523.0,523.0,523.0,523.0,524.0,524.0,524.0,524.0,524.0,524.0,524.0,524.0,524.0,524.0,524.0,524.0,524.0,524.0,504.0,504.0,504.0,504.0,504.0,504.0,480.0,480.0,480.0,480.0,480.0,480.0,480.0,480.0,480.0,480.0,480.0,480.0,480.0,480.0,517.0,517.0,517.0,517.0,517.0,517.0,521.0,521.0,521.0,521.0,521.0,521.0,521.0,521.0,521.0,521.0,521.0,521.0,521.0,521.0,523.0,480.0,517.0,500,500,500,523.4,494.4,518.6
0,6.0,11.0,11.0,519.0,491.0,512.0,519.0,519.0,519.0,519.0,519.0,519.0,519.0,519.0,519.0,519.0,518.0,518.0,518.0,518.0,518.0,518.0,518.0,518.0,518.0,518.0,491.0,491.0,491.0,491.0,491.0,491.0,491.0,491.0,491.0,491.0,484.0,484.0,484.0,484.0,484.0,484.0,484.0,484.0,484.0,484.0,512.0,512.0,512.0,512.0,512.0,512.0,512.0,512.0,512.0,512.0,510.0,510.0,510.0,510.0,510.0,510.0,510.0,510.0,510.0,510.0,518.0,484.0,510.0,500,500,500,520.1666666666666,485.3666666666667,514.0333333333333
0,9.0,59.0,10.0,518.0,543.0,514.0,518.0,518.0,518.0,516.0,516.0,516.0,516.0,516.0,516.0,516.0,516.0,516.0,516.0,516.0,516.0,509.0,509.0,509.0,509.0,509.0,484.0,484.0,484.0,484.0,484.0,484.0,484.0,484.0,484.0,484.0,484.0,484.0,484.0,484.0,484.0,543.0,543.0,543.0,543.0,543.0,510.0,510.0,510.0,504.0,504.0,504.0,504.0,504.0,504.0,504.0,504.0,504.0,504.0,504.0,504.0,514.0,514.0,514.0,514.0,514.0,509.0,484.0,504.0,500,500,500,516.2333333333333,489.9,507.8
0,8.0,59.0,10.0,509.0,543.0,514.0,509.0,509.0,509.0,509.0,509.0,509.0,509.0,509.0,509.0,509.0,508.0,508.0,508.0,508.0,508.0,508.0,508.0,508.0,508.0,508.0,543.0,543.0,543.0,543.0,543.0,543.0,543.0,543.0,543.0,543.0,510.0,510.0,510.0,510.0,510.0,510.0,510.0,510.0,510.0,510.0,514.0,514.0,514.0,514.0,514.0,514.0,514.0,514.0,514.0,514.0,513.0,513.0,513.0,513.0,513.0,513.0,513.0,513.0,513.0,513.0,508.0,510.0,513.0,500,500,500,508.9,530.0333333333333,513.3333333333334
0,7.0,12.0,22.0,508.0,518.0,513.0,508.0,508.0,508.0,508.0,508.0,508.0,508.0,505.0,505.0,505.0,505.0,501.0,501.0,501.0,501.0,501.0,501.0,501.0,501.0,501.0,510.0,510.0,510.0,510.0,510.0,510.0,510.0,506.0,506.0,506.0,506.0,518.0,518.0,518.0,518.0,518.0,518.0,518.0,518.0,518.0,513.0,513.0,513.0,513.0,513.0,513.0,503.0,503.0,503.0,503.0,503.0,491.0,491.0,491.0,491.0,491.0,491.0,491.0,491.0,491.0,501.0,506.0,491.0,500,500,500,505.6333333333333,511.46666666666664,505.46666666666664
0,7.0,7.0,16.0,501.0,518.0,507.0,501.0,501.0,501.0,501.0,501.0,496.0,496.0,496.0,496.0,496.0,496.0,494.0,494.0,494.0,494.0,494.0,494.0,494.0,494.0,494.0,518.0,518.0,518.0,518.0,518.0,514.0,514.0,514.0,514.0,514.0,514.0,511.0,511.0,511.0,511.0,511.0,511.0,511.0,511.0,511.0,491.0,491.0,491.0,491.0,491.0,504.0,504.0,504.0,504.0,504.0,504.0,507.0,507.0,507.0,507.0,507.0,507.0,507.0,507.0,507.0,494.0,511.0,491.0,500,500,500,497.96666666666664,515.2,498.3
0,3.0,10.0,14.0,497.0,514.0,506.0,497.0,497.0,497.0,497.0,497.0,495.0,495.0,495.0,495.0,495.0,495.0,495.0,495.0,495.0,495.0,495.0,495.0,495.0,495.0,495.0,504.0,504.0,504.0,504.0,504.0,514.0,514.0,514.0,514.0,514.0,514.0,514.0,514.0,514.0,514.0,514.0,514.0,514.0,514.0,514.0,493.0,493.0,493.0,493.0,493.0,506.0,506.0,506.0,506.0,506.0,506.0,506.0,506.0,506.0,506.0,506.0,506.0,506.0,506.0,506.0,495.0,504.0,493.0,500,500,500,495.0,511.3333333333333,504.1666666666667
0,8.0,16.0,4.0,503.0,514.0,510.0,495.0,502.0,502.0,502.0,502.0,502.0,502.0,502.0,502.0,503.0,503.0,503.0,503.0,503.0,503.0,503.0,503.0,503.0,503.0,503.0,514.0,498.0,498.0,498.0,498.0,498.0,498.0,498.0,498.0,511.0,511.0,511.0,511.0,511.0,511.0,511.0,511.0,511.0,511.0,511.0,506.0,510.0,510.0,510.0,510.0,510.0,510.0,510.0,510.0,507.0,507.0,507.0,507.0,507.0,507.0,507.0,507.0,507.0,507.0,507.0,495.0,498.0,506.0,500,500,500,499.8,508.6333333333333,507.43333333333334
0,8.0,20.0,19.0,515.0,514.0,522.0,507.0,507.0,507.0,507.0,515.0,515.0,515.0,515.0,515.0,515.0,515.0,515.0,515.0,515.0,515.0,515.0,515.0,515.0,519.0,519.0,514.0,514.0,514.0,494.0,494.0,494.0,494.0,494.0,494.0,494.0,494.0,494.0,494.0,494.0,494.0,494.0,494.0,494.0,487.0,487.0,522.0,522.0,522.0,503.0,503.0,503.0,503.0,503.0,503.0,503.0,503.0,503.0,503.0,503.0,503.0,503.0,503.0,503.0,512.0,512.0,507.0,494.0,503.0,500,500,500,511.26666666666665,503.3333333333333,511.8666666666667
0,4.0,42.0,28.0,519.0,529.0,531.0,519.0,519.0,519.0,519.0,519.0,519.0,519.0,519.0,517.0,517.0,517.0,517.0,517.0,517.0,517.0,517.0,517.0,517.0,517.0,517.0,487.0,487.0,487.0,487.0,487.0,487.0,487.0,529.0,529.0,529.0,529.0,529.0,529.0,529.0,529.0,529.0,529.0,529.0,529.0,529.0,512.0,512.0,512.0,512.0,512.0,512.0,512.0,531.0,531.0,531.0,531.0,531.0,531.0,531.0,531.0,531.0,531.0,531.0,531.0,531.0,517.0,487.0,512.0,500,500,500,517.7333333333333,503.3333333333333,517.7666666666667
0,4.0,28.0,8.0,521.0,529.0,531.0,517.0,517.0,517.0,517.0,517.0,517.0,517.0,518.0,518.0,518.0,518.0,518.0,518.0,518.0,521.0,521.0,521.0,521.0,521.0,521.0,529.0,529.0,529.0,529.0,529.0,529.0,529.0,519.0,519.0,519.0,519.0,519.0,519.0,519.0,501.0,501.0,501.0,501.0,501.0,501.0,531.0,531.0,531.0,531.0,531.0,531.0,529.0,529.0,529.0,529.0,529.0,529.0,529.0,523.0,523.0,523.0,523.0,523.0,523.0,523.0,517.0,501.0,523.0,500,500,500,517.9333333333333,521.6666666666666,529.1333333333333
0,10.0,20.0,23.0,518.0,521.0,504.0,518.0,518.0,518.0,518.0,518.0,518.0,518.0,518.0,518.0,518.0,518.0,518.0,518.0,518.0,511.0,511.0,511.0,511.0,511.0,511.0,501.0,501.0,501.0,501.0,501.0,501.0,501.0,501.0,501.0,501.0,501.0,501.0,501.0,501.0,521.0,521.0,521.0,521.0,521.0,521.0,500.0,500.0,500.0,500.0,500.0,500.0,500.0,500.0,500.0,500.0,500.0,500.0,500.0,500.0,504.0,504.0,504.0,504.0,504.0,504.0,511.0,501.0,500.0,500,500,500,517.7333333333333,504.3333333333333,507.56666666666666
0,9.0,20.0,5.0,520.0,521.0,509.0,511.0,511.0,511.0,511.0,511.0,511.0,511.0,511.0,520.0,520.0,520.0,520.0,520.0,520.0,520.0,520.0,520.0,520.0,520.0,520.0,521.0,521.0,521.0,521.0,521.0,521.0,521.0,521.0,501.0,501.0,501.0,501.0,501.0,501.0,501.0,501.0,501.0,501.0,501.0,501.0,504.0,504.0,504.0,504.0,504.0,504.0,504.0,504.0,509.0,509.0,509.0,509.0,509.0,509.0,509.0,509.0,509.0,509.0,509.0,509.0,511.0,501.0,504.0,500,500,500,513.7,515.0,505.5
0,5.0,6.0,29.0,525.0,495.0,517.0,525.0,525.0,521.0,521.0,521.0,521.0,521.0,521.0,521.0,521.0,521.0,521.0,521.0,521.0,521.0,521.0,521.0,521.0,521.0,521.0,495.0,495.0,495.0,495.0,495.0,495.0,495.0,495.0,495.0,495.0,495.0,495.0,495.0,495.0,495.0,495.0,495.0,495.0,495.0,495.0,517.0,517.0,488.0,488.0,488.0,488.0,488.0,488.0,488.0,488.0,488.0,488.0,488.0,488.0,488.0,488.0,488.0,488.0,488.0,488.0,521.0,495.0,488.0,500,500,500,522.4,495.4,500.03333333333336
0,17.0,25.0,31.0,521.0,520.0,519.0,521.0,517.0,517.0,517.0,517.0,517.0,517.0,517.0,517.0,517.0,517.0,504.0,504.0,504.0,504.0,504.0,504.0,504.0,504.0,504.0,495.0,496.0,496.0,496.0,496.0,496.0,496.0,496.0,496.0,496.0,496.0,520.0,520.0,520.0,520.0,520.0,520.0,520.0,520.0,520.0,508.0,508.0,508.0,508.0,508.0,508.0,508.0,508.0,508.0,508.0,508.0,519.0,519.0,519.0,519.0,519.0,519.0,519.0,519.0,519.0,504.0,495.0,488.0,500,500,500,515.8666666666667,500.43333333333334,502.8666666666667
0,5.0,3.0,8.0,507.0,494.0,504.0,507.0,507.0,507.0,507.0,507.0,507.0,507.0,502.0,502.0,502.0,502.0,502.0,502.0,502.0,502.0,502.0,502.0,502.0,502.0,502.0,491.0,491.0,491.0,491.0,491.0,491.0,491.0,494.0,494.0,494.0,494.0,494.0,494.0,494.0,494.0,494.0,494.0,494.0,494.0,494.0,496.0,496.0,496.0,496.0,496.0,496.0,496.0,504.0,504.0,504.0,504.0,504.0,504.0,504.0,504.0,504.0,504.0,504.0,504.0,504.0,502.0,491.0,496.0,500,500,500,504.8333333333333,492.3,499.46666666666664
0,16.0,23.0,14.0,502.0,514.0,510.0,502.0,502.0,502.0,502.0,502.0,502.0,498.0,498.0,498.0,498.0,498.0,498.0,491.0,491.0,491.0,491.0,491.0,491.0,491.0,491.0,494.0,494.0,494.0,494.0,494.0,494.0,507.0,507.0,507.0,507.0,507.0,514.0,514.0,514.0,514.0,514.0,514.0,514.0,514.0,514.0,504.0,504.0,504.0,504.0,504.0,504.0,510.0,510.0,510.0,510.0,510.0,509.0,509.0,509.0,509.0,509.0,509.0,509.0,509.0,509.0,491.0,494.0,504.0,500,500,500,499.4,500.26666666666665,505.96666666666664
0,1.0,14.0,13.0,491.0,514.0,509.0,491.0,491.0,491.0,491.0,491.0,491.0,490.0,490.0,490.0,490.0,490.0,490.0,490.0,490.0,490.0,490.0,490.0,490.0,490.0,490.0,514.0,514.0,514.0,514.0,514.0,514.0,500.0,500.0,500.0,500.0,500.0,500.0,500.0,500.0,500.0,500.0,500.0,500.0,500.0,500.0,509.0,509.0,509.0,509.0,509.0,509.0,496.0,496.0,496.0,496.0,496.0,496.0,496.0,496.0,496.0,496.0,496.0,496.0,496.0,496.0,490.0,500.0,496.0,500,500,500,490.6,508.4,503.8
0,7.0,16.0,14.0,497.0,516.0,510.0,490.0,497.0,497.0,497.0,497.0,497.0,497.0,497.0,497.0,497.0,497.0,497.0,497.0,497.0,497.0,497.0,497.0,497.0,499.0,499.0,516.0,516.0,516.0,516.0,516.0,516.0,516.0,516.0,516.0,516.0,516.0,516.0,516.0,516.0,516.0,516.0,516.0,516.0,516.0,516.0,510.0,510.0,510.0,510.0,510.0,510.0,510.0,510.0,510.0,510.0,510.0,510.0,510.0,510.0,510.0,510.0,510.0,510.0,496.0,496.0,490.0,500.0,496.0,500,500,500,494.2,510.1333333333333,504.8666666666667
0,3.0,1.0,16.0,499.0,516.0,512.0,499.0,499.0,496.0,496.0,496.0,496.0,496.0,496.0,496.0,496.0,496.0,496.0,496.0,496.0,496.0,496.0,496.0,496.0,496.0,496.0,516.0,516.0,515.0,515.0,515.0,515.0,515.0,515.0,515.0,515.0,515.0,515.0,515.0,515.0,515.0,515.0,515.0,515.0,515.0,515.0,496.0,496.0,512.0,512.0,512.0,512.0,512.0,512.0,512.0,512.0,512.0,512.0,512.0,512.0,512.0,512.0,512.0,512.0,512.0,512.0,496.0,515.0,496.0,500,500,500,497.23333333333335,515.4333333333333,505.53333333333336
0,10.0,18.0,23.0,506.0,498.0,500.0,499.0,499.0,499.0,499.0,499.0,499.0,499.0,499.0,499.0,499.0,499.0,506.0,506.0,506.0,506.0,506.0,506.0,506.0,506.0,506.0,497.0,497.0,497.0,497.0,497.0,497.0,497.0,497.0,497.0,497.0,497.0,498.0,498.0,498.0,498.0,498.0,498.0,498.0,498.0,498.0,500.0,500.0,500.0,500.0,500.0,500.0,500.0,500.0,500.0,500.0,500.0,489.0,489.0,489.0,489.0,489.0,489.0,489.0,489.0,489.0,499.0,497.0,489.0,500,500,500,499.73333333333335,502.6333333333333,500.26666666666665
0,8.0,15.0,15.0,514.0,513.0,504.0,510.0,510.0,510.0,510.0,510.0,510.0,510.0,510.0,510.0,510.0,510.0,510.0,510.0,510.0,514.0,514.0,514.0,514.0,514.0,514.0,513.0,513.0,513.0,513.0,513.0,513.0,513.0,513.0,513.0,513.0,513.0,513.0,513.0,513.0,505.0,505.0,505.0,505.0,505.0,505.0,499.0,499.0,499.0,499.0,499.0,499.0,499.0,499.0,499.0,499.0,499.0,499.0,499.0,499.0,504.0,504.0,504.0,504.0,504.0,504.0,510.0,505.0,499.0,500,500,500,509.6,509.2,497.5
0,8.0,8.0,5.0,522.0,513.0,509.0,514.0,514.0,514.0,514.0,514.0,514.0,522.0,522.0,522.0,522.0,522.0,522.0,522.0,522.0,522.0,522.0,522.0,522.0,522.0,519.0,505.0,505.0,505.0,505.0,505.0,505.0,513.0,513.0,513.0,513.0,513.0,513.0,513.0,513.0,513.0,513.0,513.0,513.0,513.0,511.0,504.0,504.0,504.0,504.0,504.0,504.0,509.0,509.0,509.0,509.0,509.0,509.0,509.0,509.0,509.0,509.0,509.0,509.0,509.0,521.0,514.0,505.0,504.0,500,500,500,517.4666666666667,508.46666666666664,506.1666666666667
0,8.0,8.0,17.0,522.0,513.0,521.0,522.0,522.0,522.0,522.0,522.0,522.0,522.0,519.0,519.0,519.0,519.0,519.0,519.0,519.0,519.0,519.0,519.0,519.0,519.0,523.0,513.0,513.0,513.0,513.0,513.0,513.0,513.0,511.0,511.0,511.0,511.0,511.0,511.0,511.0,511.0,511.0,511.0,511.0,511.0,482.0,509.0,509.0,509.0,509.0,509.0,509.0,509.0,521.0,521.0,521.0,521.0,521.0,521.0,521.0,521.0,521.0,521.0,521.0,521.0,509.0,519.0,511.0,509.0,500,500,500,520.0,511.4,513.3
0,4.0,29.0,12.0,523.0,506.0,511.0,523.0,523.0,523.0,523.0,523.0,523.0,523.0,523.0,523.0,523.0,523.0,523.0,521.0,521.0,521.0,521.0,521.0,521.0,521.0,521.0,482.0,482.0,482.0,482.0,482.0,482.0,482.0,482.0,482.0,482.0,482.0,482.0,506.0,506.0,506.0,506.0,506.0,506.0,506.0,506.0,509.0,509.0,509.0,509.0,509.0,509.0,509.0,509.0,509.0,509.0,509.0,509.0,511.0,511.0,511.0,511.0,511.0,511.0,511.0,511.0,521.0,482.0,509.0,500,500,500,521.6666666666666,493.56666666666666,512.2
0,5.0,24.0,14.0,521.0,506.0,511.0,521.0,521.0,521.0,521.0,521.0,521.0,521.0,521.0,521.0,521.0,521.0,521.0,518.0,518.0,518.0,518.0,518.0,518.0,518.0,518.0,506.0,506.0,506.0,506.0,506.0,506.0,506.0,506.0,506.0,506.0,506.0,506.0,500.0,500.0,500.0,500.0,500.0,500.0,500.0,500.0,511.0,511.0,511.0,511.0,511.0,511.0,511.0,511.0,511.0,511.0,511.0,511.0,497.0,497.0,497.0,497.0,497.0,497.0,497.0,497.0,518.0,500.0,497.0,500,500,500,520.4333333333333,503.0,507.6
0,2.0,3.0,5.0,520.0,503.0,502.0,518.0,518.0,518.0,518.0,518.0,518.0,518.0,518.0,518.0,518.0,520.0,520.0,520.0,520.0,520.0,520.0,520.0,520.0,520.0,520.0,500.0,500.0,500.0,500.0,500.0,500.0,500.0,500.0,500.0,500.0,503.0,503.0,503.0,503.0,503.0,503.0,503.0,503.0,503.0,503.0,497.0,497.0,497.0,497.0,497.0,497.0,497.0,497.0,497.0,497.0,502.0,502.0,502.0,502.0,502.0,502.0,502.0,502.0,502.0,502.0,518.0,500.0,497.0,500,500,500,518.6666666666666,501.0,498.6666666666667
