,emg_min_0,emg_min_1,emg_min_2,emg_prev_0_0,emg_prev_0_1,emg_prev_0_2,emg_prev_0_3,emg_prev_0_4,emg_prev_0_5,emg_prev_0_6,emg_prev_0_7,emg_prev_0_8,emg_prev_0_9,emg_prev_0_10,emg_prev_0_11,emg_prev_0_12,emg_prev_0_13,emg_prev_0_14,emg_prev_0_15,emg_prev_0_16,emg_prev_0_17,emg_prev_0_18,emg_prev_0_19,emg_prev_1_0,emg_prev_1_1,emg_prev_1_2,emg_prev_1_3,emg_prev_1_4,emg_prev_1_5,emg_prev_1_6,emg_prev_1_7,emg_prev_1_8,emg_prev_1_9,emg_prev_1_10,emg_prev_1_11,emg_prev_1_12,emg_prev_1_13,emg_prev_1_14,emg_prev_1_15,emg_prev_1_16,emg_prev_1_17,emg_prev_1_18,emg_prev_1_19,emg_prev_2_0,emg_prev_2_1,emg_prev_2_2,emg_prev_2_3,emg_prev_2_4,emg_prev_2_5,emg_prev_2_6,emg_prev_2_7,emg_prev_2_8,emg_prev_2_9,emg_prev_2_10,emg_prev_2_11,emg_prev_2_12,emg_prev_2_13,emg_prev_2_14,emg_prev_2_15,emg_prev_2_16,emg_prev_2_17,emg_prev_2_18,emg_prev_2_19,emg_0,emg_1,emg_2,emg_med_0,emg_med_1,emg_med_2,emg_ampl_0,emg_ampl_1,emg_ampl_2,emg_max_0,emg_max_1,emg_max_2
0,0.0,0.0,0.0,0.0,0.0,0.0,0.0,0.0,0.0,0.0,0.0,0.0,0.0,0.0,0.0,0.0,0.0,0.0,0.0,0.0,0.0,0.0,0.0,0.0,0.0,0.0,0.0,0.0,0.0,0.0,0.0,0.0,0.0,0.0,0.0,0.0,0.0,0.0,0.0,0.0,0.0,0.0,0.0,0.0,0.0,0.0,0.0,0.0,0.0,0.0,0.0,0.0,0.0,0.0,0.0,0.0,0.0,0.0,0.0,0.0,0.0,0.0,0.0,0.0,0.0,0.0,0.0,0.0,0.0,0.0,0.0,0.0,0.0,0.0,0.0
0,280.0,335.0,435.0,536.0,536.0,536.0,732.0,732.0,732.0,732.0,732.0,447.0,447.0,447.0,447.0,447.0,357.0,357.0,357.0,357.0,357.0,280.0,280.0,338.0,338.0,338.0,513.0,513.0,513.0,513.0,513.0,335.0,335.0,335.0,335.0,335.0,479.0,479.0,479.0,479.0,479.0,497.0,497.0,541.0,541.0,541.0,436.0,436.0,436.0,436.0,436.0,635.0,635.0,635.0,635.0,635.0,435.0,435.0,435.0,435.0,435.0,476.0,476.0,280.0,497.0,476.0,537.5555555555555,499.22222222222223,480.2888888888889,473.0,401.0,303.0,732.0,513.0,635.0
0,280.0,335.0,435.0,732.0,732.0,732.0,447.0,447.0,447.0,447.0,447.0,357.0,357.0,357.0,357.0,357.0,280.0,280.0,280.0,280.0,280.0,641.0,641.0,513.0,513.0,513.0,335.0,335.0,335.0,335.0,335.0,479.0,479.0,479.0,479.0,479.0,497.0,497.0,497.0,497.0,497.0,412.0,412.0,436.0,436.0,436.0,635.0,635.0,635.0,635.0,635.0,435.0,435.0,435.0,435.0,435.0,476.0,476.0,476.0,476.0,476.0,603.0,603.0,641.0,412.0,603.0,505.6666666666667,475.97777777777776,483.8666666666667,473.0,252.0,303.0,732.0,513.0,635.0
0,280.0,335.0,435.0,447.0,447.0,447.0,447.0,357.0,357.0,357.0,357.0,357.0,280.0,280.0,280.0,280.0,280.0,280.0,641.0,641.0,641.0,641.0,577.0,335.0,335.0,335.0,335.0,479.0,479.0,479.0,479.0,479.0,497.0,497.0,497.0,497.0,497.0,497.0,412.0,412.0,412.0,412.0,565.0,635.0,635.0,635.0,635.0,435.0,435.0,435.0,435.0,435.0,476.0,476.0,476.0,476.0,476.0,476.0,603.0,603.0,603.0,603.0,575.0,577.0,565.0,575.0,513.2222222222222,471.3777777777778,505.3777777777778,473.0,252.0,303.0,641.0,565.0,635.0
0,280.0,319.0,435.0,357.0,357.0,357.0,357.0,280.0,280.0,280.0,280.0,280.0,280.0,641.0,641.0,641.0,577.0,577.0,577.0,577.0,577.0,618.0,618.0,479.0,479.0,479.0,479.0,497.0,497.0,497.0,497.0,497.0,497.0,412.0,412.0,412.0,565.0,565.0,565.0,565.0,565.0,319.0,319.0,435.0,435.0,435.0,435.0,476.0,476.0,476.0,476.0,476.0,476.0,603.0,603.0,603.0,575.0,575.0,575.0,575.0,575.0,726.0,726.0,618.0,319.0,726.0,515.5777777777778,463.46666666666664,512.9555555555555,473.0,246.0,394.0,641.0,565.0,726.0
0,280.0,319.0,403.0,280.0,280.0,280.0,280.0,280.0,641.0,641.0,641.0,641.0,577.0,577.0,577.0,577.0,577.0,618.0,618.0,618.0,618.0,618.0,469.0,497.0,497.0,497.0,497.0,497.0,412.0,412.0,412.0,412.0,565.0,565.0,565.0,565.0,565.0,319.0,319.0,319.0,319.0,319.0,524.0,476.0,476.0,476.0,476.0,476.0,603.0,603.0,603.0,603.0,575.0,575.0,575.0,575.0,575.0,726.0,726.0,726.0,726.0,726.0,403.0,469.0,524.0,403.0,497.26666666666665,444.5777777777778,522.8888888888889,452.0,246.0,394.0,641.0,565.0,726.0
0,469.0,266.0,403.0,641.0,641.0,641.0,577.0,577.0,577.0,577.0,577.0,618.0,618.0,618.0,618.0,618.0,469.0,469.0,469.0,469.0,469.0,540.0,540.0,412.0,412.0,412.0,565.0,565.0,565.0,565.0,565.0,319.0,319.0,319.0,319.0,319.0,524.0,524.0,524.0,524.0,524.0,266.0,266.0,603.0,603.0,603.0,575.0,575.0,575.0,575.0,575.0,726.0,726.0,726.0,726.0,726.0,403.0,403.0,403.0,403.0,403.0,521.0,521.0,540.0,266.0,521.0,509.6,441.1333333333333,532.9555555555555,452.0,299.0,323.0,641.0,565.0,726.0
0,469.0,266.0,403.0,577.0,577.0,577.0,618.0,618.0,618.0,618.0,618.0,469.0,469.0,469.0,469.0,469.0,540.0,540.0,540.0,540.0,540.0,513.0,513.0,565.0,565.0,565.0,319.0,319.0,319.0,319.0,319.0,524.0,524.0,524.0,524.0,524.0,266.0,266.0,266.0,266.0,266.0,452.0,452.0,575.0,575.0,575.0,726.0,726.0,726.0,726.0,726.0,403.0,403.0,403.0,403.0,403.0,521.0,521.0,521.0,521.0,521.0,530.0,530.0,513.0,452.0,530.0,500.73333333333335,429.4888888888889,535.6,452.0,299.0,323.0,618.0,565.0,726.0
0,469.0,266.0,403.0,618.0,618.0,618.0,618.0,469.0,469.0,469.0,469.0,469.0,540.0,540.0,540.0,540.0,540.0,540.0,513.0,513.0,513.0,513.0,513.0,319.0,319.0,319.0,319.0,524.0,524.0,524.0,524.0,524.0,266.0,266.0,266.0,266.0,266.0,266.0,452.0,452.0,452.0,452.0,452.0,726.0,726.0,726.0,726.0,403.0,403.0,403.0,403.0,403.0,521.0,521.0,521.0,521.0,521.0,521.0,530.0,530.0,530.0,530.0,530.0,513.0,452.0,530.0,487.6,428.02222222222224,539.5333333333333,361.0,299.0,323.0,618.0,524.0,726.0
0,469.0,266.0,403.0,469.0,469.0,469.0,469.0,469.0,540.0,540.0,540.0,540.0,540.0,540.0,513.0,513.0,513.0,513.0,513.0,469.0,469.0,469.0,469.0,524.0,524.0,524.0,524.0,524.0,266.0,266.0,266.0,266.0,266.0,266.0,452.0,452.0,452.0,452.0,452.0,578.0,578.0,578.0,578.0,403.0,403.0,403.0,403.0,403.0,521.0,521.0,521.0,521.0,521.0,521.0,530.0,530.0,530.0,530.0,530.0,628.0,628.0,628.0,628.0,469.0,578.0,628.0,489.55555555555554,449.6222222222222,538.9111111111112,361.0,312.0,323.0,540.0,578.0,628.0
0,421.0,266.0,403.0,469.0,540.0,540.0,540.0,540.0,540.0,540.0,513.0,513.0,513.0,513.0,513.0,469.0,469.0,469.0,469.0,421.0,421.0,421.0,421.0,524.0,266.0,266.0,266.0,266.0,266.0,266.0,452.0,452.0,452.0,452.0,452.0,578.0,578.0,578.0,578.0,712.0,712.0,712.0,712.0,403.0,521.0,521.0,521.0,521.0,521.0,521.0,530.0,530.0,530.0,530.0,530.0,628.0,628.0,628.0,628.0,409.0,409.0,409.0,409.0,421.0,712.0,409.0,495.24444444444447,470.3333333333333,536.6,361.0,446.0,323.0,540.0,712.0,628.0
0,413.0,266.0,409.0,540.0,540.0,513.0,513.0,513.0,513.0,513.0,469.0,469.0,469.0,469.0,421.0,421.0,421.0,421.0,413.0,413.0,413.0,413.0,538.0,266.0,266.0,452.0,452.0,452.0,452.0,452.0,578.0,578.0,578.0,578.0,712.0,712.0,712.0,712.0,618.0,618.0,618.0,618.0,659.0,521.0,521.0,530.0,530.0,530.0,530.0,530.0,628.0,628.0,628.0,628.0,409.0,409.0,409.0,409.0,609.0,609.0,609.0,609.0,611.0,538.0,659.0,611.0,511.0888888888889,485.0888888888889,552.3333333333334,361.0,446.0,323.0,540.0,712.0,628.0
0,413.0,452.0,409.0,513.0,513.0,469.0,469.0,469.0,469.0,421.0,421.0,421.0,421.0,413.0,413.0,413.0,413.0,538.0,538.0,538.0,538.0,577.0,577.0,452.0,452.0,578.0,578.0,578.0,578.0,712.0,712.0,712.0,712.0,618.0,618.0,618.0,618.0,659.0,659.0,659.0,659.0,679.0,679.0,530.0,530.0,628.0,628.0,628.0,628.0,409.0,409.0,409.0,409.0,609.0,609.0,609.0,609.0,611.0,611.0,611.0,611.0,581.0,581.0,577.0,679.0,581.0,516.5555555555555,509.2,558.2,228.0,446.0,323.0,577.0,712.0,628.0
0,413.0,502.0,409.0,469.0,421.0,421.0,421.0,421.0,413.0,413.0,413.0,413.0,538.0,538.0,538.0,538.0,538.0,577.0,577.0,577.0,577.0,506.0,506.0,578.0,712.0,712.0,712.0,712.0,618.0,618.0,618.0,618.0,659.0,659.0,659.0,659.0,659.0,679.0,679.0,679.0,679.0,502.0,502.0,628.0,409.0,409.0,409.0,409.0,609.0,609.0,609.0,609.0,611.0,611.0,611.0,611.0,611.0,581.0,581.0,581.0,581.0,599.0,599.0,506.0,502.0,599.0,511.97777777777776,517.4,559.0444444444445,205.0,446.0,323.0,577.0,712.0,628.0
0,413.0,498.0,409.0,421.0,413.0,413.0,413.0,413.0,538.0,538.0,538.0,538.0,538.0,577.0,577.0,577.0,577.0,506.0,506.0,506.0,506.0,506.0,523.0,712.0,618.0,618.0,618.0,618.0,659.0,659.0,659.0,659.0,659.0,679.0,679.0,679.0,679.0,502.0,502.0,502.0,502.0,502.0,498.0,409.0,609.0,609.0,609.0,609.0,611.0,611.0,611.0,611.0,611.0,581.0,581.0,581.0,581.0,599.0,599.0,599.0,599.0,599.0,470.0,523.0,498.0,470.0,503.31111111111113,528.1111111111111,548.2444444444444,205.0,446.0,323.0,577.0,712.0,611.0
0,413.0,441.0,216.0,413.0,538.0,538.0,538.0,538.0,538.0,577.0,577.0,577.0,577.0,506.0,506.0,506.0,506.0,506.0,523.0,523.0,523.0,523.0,486.0,618.0,659.0,659.0,659.0,659.0,659.0,679.0,679.0,679.0,679.0,502.0,502.0,502.0,502.0,502.0,498.0,498.0,498.0,498.0,441.0,609.0,611.0,611.0,611.0,611.0,611.0,581.0,581.0,581.0,581.0,599.0,599.0,599.0,599.0,599.0,470.0,470.0,470.0,470.0,216.0,486.0,441.0,216.0,500.6666666666667,533.6444444444444,534.2,164.0,446.0,412.0,577.0,679.0,611.0
0,486.0,350.0,216.0,538.0,538.0,577.0,577.0,577.0,577.0,506.0,506.0,506.0,506.0,506.0,523.0,523.0,523.0,523.0,486.0,486.0,486.0,486.0,602.0,659.0,659.0,679.0,679.0,679.0,679.0,502.0,502.0,502.0,502.0,502.0,498.0,498.0,498.0,498.0,441.0,441.0,441.0,441.0,350.0,611.0,611.0,581.0,581.0,581.0,581.0,599.0,599.0,599.0,599.0,599.0,470.0,470.0,470.0,470.0,216.0,216.0,216.0,216.0,674.0,602.0,350.0,674.0,503.1777777777778,529.9777777777778,525.1333333333333,189.0,446.0,458.0,602.0,679.0,674.0
0,486.0,350.0,216.0,577.0,577.0,506.0,506.0,506.0,506.0,506.0,523.0,523.0,523.0,523.0,486.0,486.0,486.0,486.0,602.0,602.0,602.0,602.0,602.0,679.0,679.0,502.0,502.0,502.0,502.0,502.0,498.0,498.0,498.0,498.0,441.0,441.0,441.0,441.0,350.0,350.0,350.0,350.0,350.0,581.0,581.0,599.0,599.0,599.0,599.0,599.0,470.0,470.0,470.0,470.0,216.0,216.0,216.0,216.0,674.0,674.0,674.0,674.0,674.0,602.0,350.0,674.0,508.68888888888887,537.4444444444445,538.7333333333333,189.0,446.0,458.0,602.0,679.0,674.0
0,475.0,350.0,216.0,506.0,506.0,523.0,523.0,523.0,523.0,486.0,486.0,486.0,486.0,602.0,602.0,602.0,602.0,602.0,475.0,475.0,475.0,475.0,551.0,502.0,502.0,498.0,498.0,498.0,498.0,441.0,441.0,441.0,441.0,350.0,350.0,350.0,350.0,350.0,523.0,523.0,523.0,523.0,441.0,599.0,599.0,470.0,470.0,470.0,470.0,216.0,216.0,216.0,216.0,674.0,674.0,674.0,674.0,674.0,717.0,717.0,717.0,717.0,820.0,551.0,441.0,820.0,505.55555555555554,547.6444444444444,562.0,189.0,362.0,604.0,602.0,523.0,820.0
0,470.0,350.0,216.0,523.0,523.0,486.0,486.0,486.0,486.0,602.0,602.0,602.0,602.0,602.0,475.0,475.0,475.0,475.0,551.0,551.0,551.0,551.0,470.0,498.0,498.0,441.0,441.0,441.0,441.0,350.0,350.0,350.0,350.0,350.0,523.0,523.0,523.0,523.0,441.0,441.0,441.0,441.0,416.0,470.0,470.0,216.0,216.0,216.0,216.0,674.0,674.0,674.0,674.0,674.0,717.0,717.0,717.0,717.0,820.0,820.0,820.0,820.0,791.0,470.0,416.0,791.0,510.06666666666666,537.7111111111111,580.6,189.0,362.0,604.0,602.0,523.0,820.0
0,436.0,350.0,216.0,486.0,602.0,602.0,602.0,602.0,602.0,475.0,475.0,475.0,475.0,551.0,551.0,551.0,551.0,470.0,470.0,470.0,470.0,470.0,436.0,441.0,350.0,350.0,350.0,350.0,350.0,523.0,523.0,523.0,523.0,441.0,441.0,441.0,441.0,416.0,416.0,416.0,416.0,416.0,470.0,216.0,674.0,674.0,674.0,674.0,674.0,717.0,717.0,717.0,717.0,820.0,820.0,820.0,820.0,791.0,791.0,791.0,791.0,791.0,656.0,436.0,470.0,656.0,513.6888888888889,509.0,615.1777777777778,189.0,329.0,604.0,602.0,523.0,820.0
0,436.0,350.0,563.0,602.0,475.0,475.0,475.0,475.0,551.0,551.0,551.0,551.0,470.0,470.0,470.0,470.0,470.0,436.0,436.0,436.0,436.0,436.0,462.0,350.0,523.0,523.0,523.0,523.0,441.0,441.0,441.0,441.0,416.0,416.0,416.0,416.0,416.0,470.0,470.0,470.0,470.0,470.0,501.0,674.0,717.0,717.0,717.0,717.0,820.0,820.0,820.0,820.0,791.0,791.0,791.0,791.0,791.0,656.0,656.0,656.0,656.0,656.0,563.0,462.0,501.0,563.0,514.0444444444445,492.3333333333333,618.2888888888889,166.0,329.0,604.0,602.0,523.0,820.0
0,422.0,416.0,563.0,551.0,551.0,551.0,551.0,470.0,470.0,470.0,470.0,470.0,436.0,436.0,436.0,436.0,462.0,462.0,462.0,462.0,462.0,422.0,422.0,441.0,441.0,441.0,441.0,416.0,416.0,416.0,416.0,416.0,470.0,470.0,470.0,470.0,501.0,501.0,501.0,501.0,501.0,618.0,618.0,820.0,820.0,820.0,820.0,791.0,791.0,791.0,791.0,791.0,656.0,656.0,656.0,656.0,563.0,563.0,563.0,563.0,563.0,568.0,568.0,422.0,618.0,568.0,503.84444444444443,476.93333333333334,613.7333333333333,180.0,329.0,604.0,551.0,618.0,820.0
0,422.0,416.0,495.0,470.0,470.0,470.0,470.0,436.0,436.0,436.0,436.0,436.0,462.0,462.0,462.0,462.0,462.0,422.0,422.0,422.0,422.0,505.0,505.0,416.0,416.0,416.0,416.0,470.0,470.0,470.0,470.0,470.0,501.0,501.0,501.0,501.0,501.0,618.0,618.0,618.0,618.0,435.0,435.0,791.0,791.0,791.0,791.0,656.0,656.0,656.0,656.0,656.0,563.0,563.0,563.0,563.0,563.0,568.0,568.0,568.0,568.0,495.0,495.0,505.0,435.0,495.0,493.46666666666664,469.8888888888889,608.2444444444444,180.0,268.0,604.0,505.0,618.0,791.0
0,422.0,410.0,488.0,436.0,436.0,436.0,436.0,436.0,462.0,462.0,462.0,462.0,462.0,422.0,422.0,422.0,422.0,505.0,505.0,505.0,505.0,464.0,464.0,470.0,470.0,470.0,470.0,470.0,501.0,501.0,501.0,501.0,501.0,618.0,618.0,618.0,618.0,435.0,435.0,435.0,435.0,410.0,410.0,656.0,656.0,656.0,656.0,656.0,563.0,563.0,563.0,563.0,563.0,568.0,568.0,568.0,568.0,495.0,495.0,495.0,495.0,488.0,488.0,464.0,410.0,488.0,491.1777777777778,462.9111111111111,601.5555555555555,180.0,268.0,604.0,505.0,618.0,656.0
0,422.0,399.0,468.0,436.0,462.0,462.0,462.0,462.0,462.0,422.0,422.0,422.0,422.0,505.0,505.0,505.0,505.0,464.0,464.0,464.0,464.0,494.0,494.0,470.0,501.0,501.0,501.0,501.0,501.0,618.0,618.0,618.0,618.0,435.0,435.0,435.0,435.0,410.0,410.0,410.0,410.0,399.0,399.0,656.0,563.0,563.0,563.0,563.0,563.0,568.0,568.0,568.0,568.0,495.0,495.0,495.0,495.0,488.0,488.0,488.0,488.0,468.0,468.0,494.0,399.0,468.0,488.0888888888889,455.8666666666667,607.9111111111112,180.0,268.0,604.0,505.0,618.0,656.0
0,422.0,399.0,468.0,462.0,462.0,422.0,422.0,422.0,422.0,505.0,505.0,505.0,505.0,464.0,464.0,464.0,464.0,494.0,494.0,494.0,494.0,472.0,472.0,501.0,501.0,618.0,618.0,618.0,618.0,435.0,435.0,435.0,435.0,410.0,410.0,410.0,410.0,399.0,399.0,399.0,399.0,450.0,450.0,563.0,563.0,568.0,568.0,568.0,568.0,495.0,495.0,495.0,495.0,488.0,488.0,488.0,488.0,468.0,468.0,468.0,468.0,512.0,512.0,472.0,450.0,512.0,485.24444444444447,456.4222222222222,622.0888888888888,180.0,268.0,352.0,505.0,618.0,568.0
0,422.0,399.0,468.0,422.0,422.0,505.0,505.0,505.0,505.0,464.0,464.0,464.0,464.0,494.0,494.0,494.0,494.0,472.0,472.0,472.0,472.0,513.0,513.0,618.0,618.0,435.0,435.0,435.0,435.0,410.0,410.0,410.0,410.0,399.0,399.0,399.0,399.0,450.0,450.0,450.0,450.0,592.0,592.0,568.0,568.0,495.0,495.0,495.0,495.0,488.0,488.0,488.0,488.0,468.0,468.0,468.0,468.0,512.0,512.0,512.0,512.0,541.0,541.0,513.0,592.0,541.0,475.5111111111111,471.6222222222222,608.9777777777778,129.0,219.0,352.0,513.0,618.0,568.0
0,464.0,399.0,468.0,505.0,505.0,464.0,464.0,464.0,464.0,494.0,494.0,494.0,494.0,472.0,472.0,472.0,472.0,513.0,513.0,513.0,513.0,513.0,531.0,435.0,435.0,410.0,410.0,410.0,410.0,399.0,399.0,399.0,399.0,450.0,450.0,450.0,450.0,592.0,592.0,592.0,592.0,592.0,549.0,495.0,495.0,488.0,488.0,488.0,488.0,468.0,468.0,468.0,468.0,512.0,512.0,512.0,512.0,541.0,541.0,541.0,541.0,541.0,690.0,531.0,549.0,690.0,479.2888888888889,476.8,596.6444444444444,129.0,219.0,352.0,531.0,592.0,690.0
0,407.0,399.0,468.0,464.0,464.0,464.0,494.0,494.0,494.0,494.0,472.0,472.0,472.0,472.0,513.0,513.0,513.0,513.0,531.0,531.0,531.0,407.0,407.0,410.0,410.0,410.0,399.0,399.0,399.0,399.0,450.0,450.0,450.0,450.0,592.0,592.0,592.0,592.0,549.0,549.0,549.0,622.0,622.0,488.0,488.0,488.0,468.0,468.0,468.0,468.0,512.0,512.0,512.0,512.0,541.0,541.0,541.0,541.0,690.0,690.0,690.0,511.0,511.0,407.0,622.0,511.0,475.2,485.6222222222222,584.0,144.0,223.0,352.0,531.0,622.0,690.0
0,407.0,399.0,353.0,494.0,472.0,472.0,472.0,472.0,513.0,513.0,513.0,513.0,513.0,531.0,531.0,531.0,407.0,407.0,407.0,407.0,407.0,500.0,500.0,399.0,450.0,450.0,450.0,450.0,592.0,592.0,592.0,592.0,592.0,549.0,549.0,549.0,622.0,622.0,622.0,622.0,622.0,489.0,489.0,468.0,512.0,512.0,512.0,512.0,541.0,541.0,541.0,541.0,541.0,690.0,690.0,690.0,511.0,511.0,511.0,511.0,511.0,353.0,353.0,500.0,489.0,353.0,469.1333333333333,506.6222222222222,539.0,124.0,223.0,337.0,531.0,622.0,690.0
0,407.0,450.0,353.0,472.0,513.0,513.0,513.0,513.0,513.0,531.0,531.0,531.0,407.0,407.0,407.0,407.0,407.0,500.0,500.0,500.0,500.0,531.0,531.0,450.0,592.0,592.0,592.0,592.0,592.0,549.0,549.0,549.0,622.0,622.0,622.0,622.0,622.0,489.0,489.0,489.0,489.0,557.0,557.0,512.0,541.0,541.0,541.0,541.0,541.0,690.0,690.0,690.0,511.0,511.0,511.0,511.0,511.0,353.0,353.0,353.0,353.0,432.0,432.0,531.0,557.0,432.0,476.2,511.3333333333333,515.5777777777778,124.0,223.0,337.0,531.0,622.0,690.0
0,407.0,489.0,353.0,513.0,513.0,513.0,531.0,531.0,531.0,407.0,407.0,407.0,407.0,407.0,500.0,500.0,500.0,500.0,531.0,531.0,531.0,504.0,504.0,592.0,592.0,592.0,549.0,549.0,549.0,622.0,622.0,622.0,622.0,622.0,489.0,489.0,489.0,489.0,557.0,557.0,557.0,493.0,493.0,541.0,541.0,541.0,690.0,690.0,690.0,511.0,511.0,511.0,511.0,511.0,353.0,353.0,353.0,353.0,432.0,432.0,432.0,522.0,522.0,504.0,493.0,522.0,480.1777777777778,512.9111111111112,508.77777777777777,124.0,223.0,337.0,531.0,622.0,690.0
0,407.0,462.0,353.0,531.0,531.0,531.0,407.0,407.0,407.0,407.0,407.0,500.0,500.0,500.0,500.0,531.0,531.0,531.0,504.0,504.0,504.0,631.0,631.0,549.0,549.0,549.0,622.0,622.0,622.0,622.0,622.0,489.0,489.0,489.0,489.0,557.0,557.0,557.0,493.0,493.0,493.0,462.0,462.0,690.0,690.0,690.0,511.0,511.0,511.0,511.0,511.0,353.0,353.0,353.0,353.0,432.0,432.0,432.0,522.0,522.0,522.0,424.0,424.0,631.0,462.0,424.0,488.6222222222222,511.0,501.68888888888887,224.0,223.0,337.0,631.0,622.0,690.0
0,407.0,462.0,353.0,407.0,407.0,407.0,407.0,500.0,500.0,500.0,500.0,531.0,531.0,531.0,504.0,504.0,504.0,631.0,631.0,631.0,631.0,482.0,482.0,622.0,622.0,622.0,622.0,489.0,489.0,489.0,489.0,557.0,557.0,557.0,493.0,493.0,493.0,462.0,462.0,462.0,462.0,576.0,576.0,511.0,511.0,511.0,511.0,353.0,353.0,353.0,353.0,432.0,432.0,432.0,522.0,522.0,522.0,424.0,424.0,424.0,424.0,376.0,376.0,482.0,576.0,376.0,500.5777777777778,502.2,486.75555555555553,224.0,223.0,337.0,631.0,622.0,522.0
0,407.0,462.0,353.0,407.0,500.0,500.0,500.0,500.0,531.0,531.0,531.0,504.0,504.0,504.0,631.0,631.0,631.0,631.0,482.0,482.0,482.0,682.0,682.0,622.0,489.0,489.0,489.0,489.0,557.0,557.0,557.0,493.0,493.0,493.0,462.0,462.0,462.0,462.0,576.0,576.0,576.0,614.0,614.0,511.0,353.0,353.0,353.0,353.0,432.0,432.0,432.0,522.0,522.0,522.0,424.0,424.0,424.0,424.0,376.0,376.0,376.0,636.0,636.0,682.0,614.0,636.0,507.93333333333334,513.2888888888889,490.3777777777778,275.0,223.0,337.0,682.0,622.0,636.0
0,482.0,462.0,353.0,500.0,531.0,531.0,531.0,504.0,504.0,504.0,631.0,631.0,631.0,631.0,482.0,482.0,482.0,682.0,682.0,682.0,682.0,682.0,682.0,489.0,557.0,557.0,557.0,493.0,493.0,493.0,462.0,462.0,462.0,462.0,576.0,576.0,576.0,614.0,614.0,614.0,614.0,614.0,614.0,353.0,432.0,432.0,432.0,522.0,522.0,522.0,424.0,424.0,424.0,424.0,376.0,376.0,376.0,636.0,636.0,636.0,636.0,636.0,636.0,682.0,614.0,636.0,526.4,530.8666666666667,503.3777777777778,275.0,223.0,337.0,682.0,614.0,636.0
0,406.0,462.0,376.0,504.0,504.0,504.0,631.0,631.0,631.0,631.0,482.0,482.0,482.0,682.0,682.0,682.0,682.0,682.0,682.0,406.0,406.0,552.0,552.0,493.0,493.0,493.0,462.0,462.0,462.0,462.0,576.0,576.0,576.0,614.0,614.0,614.0,614.0,614.0,614.0,559.0,559.0,499.0,499.0,522.0,522.0,522.0,424.0,424.0,424.0,424.0,376.0,376.0,376.0,636.0,636.0,636.0,636.0,636.0,636.0,654.0,654.0,645.0,645.0,552.0,499.0,645.0,525.7333333333333,542.1777777777778,519.0666666666667,276.0,223.0,337.0,682.0,614.0,654.0
0,406.0,298.0,376.0,631.0,631.0,631.0,482.0,482.0,482.0,682.0,682.0,682.0,682.0,682.0,682.0,406.0,406.0,552.0,552.0,552.0,552.0,584.0,584.0,462.0,462.0,462.0,576.0,576.0,576.0,614.0,614.0,614.0,614.0,614.0,614.0,559.0,559.0,499.0,499.0,499.0,499.0,298.0,298.0,424.0,424.0,424.0,376.0,376.0,376.0,636.0,636.0,636.0,636.0,636.0,636.0,654.0,654.0,645.0,645.0,645.0,645.0,468.0,468.0,584.0,298.0,468.0,533.7777777777778,538.7333333333333,524.0,276.0,324.0,337.0,682.0,614.0,654.0
0,406.0,298.0,376.0,482.0,482.0,682.0,682.0,682.0,682.0,682.0,682.0,406.0,406.0,552.0,552.0,552.0,552.0,584.0,584.0,584.0,584.0,538.0,538.0,576.0,576.0,614.0,614.0,614.0,614.0,614.0,614.0,559.0,559.0,499.0,499.0,499.0,499.0,298.0,298.0,298.0,298.0,364.0,364.0,376.0,376.0,636.0,636.0,636.0,636.0,636.0,636.0,654.0,654.0,645.0,645.0,645.0,645.0,468.0,468.0,468.0,468.0,471.0,471.0,538.0,364.0,471.0,538.9555555555555,518.6888888888889,518.2888888888889,276.0,324.0,337.0,682.0,614.0,654.0
0,406.0,298.0,468.0,682.0,682.0,682.0,682.0,682.0,406.0,406.0,552.0,552.0,552.0,552.0,584.0,584.0,584.0,584.0,538.0,538.0,538.0,533.0,533.0,614.0,614.0,614.0,614.0,614.0,559.0,559.0,499.0,499.0,499.0,499.0,298.0,298.0,298.0,298.0,364.0,364.0,364.0,354.0,354.0,636.0,636.0,636.0,636.0,636.0,654.0,654.0,645.0,645.0,645.0,645.0,468.0,468.0,468.0,468.0,471.0,471.0,471.0,672.0,672.0,533.0,354.0,672.0,540.0,504.0,519.2444444444444,276.0,324.0,337.0,682.0,614.0,672.0
0,406.0,298.0,468.0,682.0,406.0,406.0,552.0,552.0,552.0,552.0,584.0,584.0,584.0,584.0,538.0,538.0,538.0,533.0,533.0,533.0,533.0,533.0,535.0,614.0,559.0,559.0,499.0,499.0,499.0,499.0,298.0,298.0,298.0,298.0,364.0,364.0,364.0,354.0,354.0,354.0,354.0,354.0,427.0,636.0,654.0,654.0,645.0,645.0,645.0,645.0,468.0,468.0,468.0,468.0,471.0,471.0,471.0,672.0,672.0,672.0,672.0,672.0,551.0,535.0,427.0,551.0,545.7333333333333,485.0444444444444,522.9111111111112,276.0,324.0,319.0,682.0,614.0,672.0
0,501.0,298.0,468.0,552.0,552.0,584.0,584.0,584.0,584.0,538.0,538.0,538.0,533.0,533.0,533.0,533.0,533.0,535.0,535.0,535.0,535.0,501.0,501.0,499.0,499.0,298.0,298.0,298.0,298.0,364.0,364.0,364.0,354.0,354.0,354.0,354.0,354.0,427.0,427.0,427.0,427.0,437.0,437.0,645.0,645.0,468.0,468.0,468.0,468.0,471.0,471.0,471.0,672.0,672.0,672.0,672.0,672.0,551.0,551.0,551.0,551.0,586.0,586.0,501.0,437.0,586.0,554.3111111111111,469.73333333333335,535.9333333333333,276.0,316.0,319.0,584.0,499.0,672.0
0,501.0,298.0,468.0,584.0,584.0,538.0,538.0,538.0,533.0,533.0,533.0,533.0,533.0,535.0,535.0,535.0,535.0,501.0,501.0,501.0,501.0,568.0,568.0,298.0,298.0,364.0,364.0,364.0,354.0,354.0,354.0,354.0,354.0,427.0,427.0,427.0,427.0,437.0,437.0,437.0,437.0,486.0,486.0,468.0,468.0,471.0,471.0,471.0,672.0,672.0,672.0,672.0,672.0,551.0,551.0,551.0,551.0,586.0,586.0,586.0,586.0,613.0,613.0,568.0,486.0,613.0,556.0,464.26666666666665,554.3333333333334,276.0,316.0,296.0,584.0,486.0,672.0
0,501.0,354.0,471.0,538.0,538.0,533.0,533.0,533.0,533.0,533.0,535.0,535.0,535.0,535.0,501.0,501.0,501.0,501.0,568.0,568.0,568.0,567.0,567.0,364.0,364.0,354.0,354.0,354.0,354.0,354.0,427.0,427.0,427.0,427.0,437.0,437.0,437.0,437.0,486.0,486.0,486.0,396.0,396.0,471.0,471.0,672.0,672.0,672.0,672.0,672.0,551.0,551.0,551.0,551.0,586.0,586.0,586.0,586.0,613.0,613.0,613.0,524.0,524.0,567.0,396.0,524.0,559.6222222222223,458.3777777777778,558.4444444444445,276.0,316.0,296.0,568.0,486.0,672.0
0,501.0,283.0,524.0,533.0,533.0,533.0,533.0,535.0,535.0,535.0,535.0,501.0,501.0,501.0,501.0,568.0,568.0,568.0,567.0,567.0,567.0,538.0,538.0,354.0,354.0,354.0,354.0,427.0,427.0,427.0,427.0,437.0,437.0,437.0,437.0,486.0,486.0,486.0,396.0,396.0,396.0,283.0,283.0,672.0,672.0,672.0,672.0,551.0,551.0,551.0,551.0,586.0,586.0,586.0,586.0,613.0,613.0,613.0,524.0,524.0,524.0,641.0,641.0,538.0,283.0,641.0,556.8888888888889,448.26666666666665,568.1333333333333,276.0,331.0,296.0,568.0,486.0,672.0
0,501.0,283.0,459.0,533.0,535.0,535.0,535.0,535.0,501.0,501.0,501.0,501.0,568.0,568.0,568.0,567.0,567.0,567.0,538.0,538.0,538.0,538.0,538.0,354.0,427.0,427.0,427.0,427.0,437.0,437.0,437.0,437.0,486.0,486.0,486.0,396.0,396.0,396.0,283.0,283.0,283.0,283.0,361.0,672.0,551.0,551.0,551.0,551.0,586.0,586.0,586.0,586.0,613.0,613.0,613.0,524.0,524.0,524.0,641.0,641.0,641.0,641.0,459.0,538.0,361.0,459.0,554.0,435.53333333333336,579.6222222222223,276.0,331.0,296.0,568.0,486.0,672.0
0,501.0,283.0,459.0,535.0,501.0,501.0,501.0,501.0,568.0,568.0,568.0,567.0,567.0,567.0,538.0,538.0,538.0,538.0,538.0,538.0,538.0,538.0,524.0,427.0,437.0,437.0,437.0,437.0,486.0,486.0,486.0,396.0,396.0,396.0,283.0,283.0,283.0,283.0,361.0,361.0,361.0,361.0,484.0,551.0,586.0,586.0,586.0,586.0,613.0,613.0,613.0,524.0,524.0,524.0,641.0,641.0,641.0,641.0,459.0,459.0,459.0,459.0,536.0,524.0,484.0,536.0,549.7777777777778,417.46666666666664,577.1555555555556,276.0,331.0,213.0,568.0,486.0,641.0
0,501.0,283.0,459.0,501.0,501.0,568.0,568.0,568.0,567.0,567.0,567.0,538.0,538.0,538.0,538.0,538.0,538.0,538.0,538.0,524.0,524.0,524.0,516.0,437.0,437.0,486.0,486.0,486.0,396.0,396.0,396.0,283.0,283.0,283.0,283.0,361.0,361.0,361.0,361.0,484.0,484.0,484.0,547.0,586.0,586.0,613.0,613.0,613.0,524.0,524.0,524.0,641.0,641.0,641.0,641.0,459.0,459.0,459.0,459.0,536.0,536.0,536.0,577.0,516.0,547.0,577.0,539.0666666666667,410.2,571.4,276.0,331.0,213.0,568.0,547.0,641.0
0,516.0,283.0,459.0,568.0,567.0,567.0,567.0,538.0,538.0,538.0,538.0,538.0,538.0,538.0,524.0,524.0,524.0,516.0,516.0,516.0,516.0,567.0,567.0,486.0,396.0,396.0,396.0,283.0,283.0,283.0,361.0,361.0,361.0,361.0,484.0,484.0,484.0,547.0,547.0,547.0,547.0,613.0,613.0,613.0,524.0,524.0,641.0,641.0,641.0,641.0,459.0,459.0,459.0,459.0,536.0,536.0,536.0,577.0,577.0,577.0,577.0,519.0,519.0,567.0,613.0,519.0,540.6,410.7111111111111,563.8666666666667,83.0,330.0,213.0,568.0,613.0,641.0
0,516.0,283.0,459.0,538.0,538.0,538.0,538.0,538.0,538.0,538.0,524.0,524.0,524.0,516.0,516.0,516.0,516.0,567.0,567.0,567.0,567.0,520.0,520.0,283.0,283.0,283.0,361.0,361.0,361.0,361.0,484.0,484.0,484.0,547.0,547.0,547.0,547.0,613.0,613.0,613.0,613.0,490.0,490.0,641.0,641.0,641.0,459.0,459.0,459.0,459.0,536.0,536.0,536.0,577.0,577.0,577.0,577.0,519.0,519.0,519.0,519.0,528.0,528.0,520.0,490.0,528.0,538.7555555555556,426.84444444444443,558.1333333333333,83.0,330.0,213.0,567.0,613.0,641.0
0,499.0,361.0,459.0,538.0,538.0,538.0,538.0,524.0,524.0,524.0,516.0,516.0,516.0,516.0,567.0,567.0,567.0,567.0,520.0,520.0,520.0,499.0,499.0,361.0,361.0,361.0,361.0,484.0,484.0,484.0,547.0,547.0,547.0,547.0,613.0,613.0,613.0,613.0,490.0,490.0,490.0,552.0,552.0,459.0,459.0,459.0,459.0,536.0,536.0,536.0,577.0,577.0,577.0,577.0,519.0,519.0,519.0,519.0,528.0,528.0,528.0,545.0,545.0,499.0,552.0,545.0,534.5777777777778,440.93333333333334,562.8222222222222,69.0,330.0,213.0,567.0,613.0,577.0
0,499.0,484.0,495.0,524.0,524.0,524.0,516.0,516.0,516.0,516.0,567.0,567.0,567.0,567.0,520.0,520.0,499.0,499.0,499.0,499.0,529.0,529.0,529.0,484.0,484.0,484.0,547.0,547.0,547.0,547.0,613.0,613.0,613.0,613.0,490.0,490.0,552.0,552.0,552.0,552.0,557.0,557.0,557.0,536.0,536.0,536.0,577.0,577.0,577.0,577.0,519.0,519.0,519.0,519.0,528.0,528.0,545.0,545.0,545.0,545.0,495.0,495.0,495.0,529.0,557.0,495.0,532.6666666666666,458.31111111111113,558.2444444444444,69.0,330.0,213.0,567.0,613.0,577.0
0,499.0,475.0,298.0,516.0,516.0,516.0,567.0,567.0,567.0,567.0,520.0,520.0,520.0,499.0,499.0,499.0,499.0,529.0,529.0,529.0,529.0,529.0,532.0,547.0,547.0,547.0,613.0,613.0,613.0,613.0,490.0,490.0,490.0,552.0,552.0,552.0,552.0,557.0,557.0,557.0,557.0,557.0,475.0,577.0,577.0,577.0,519.0,519.0,519.0,519.0,528.0,528.0,528.0,545.0,545.0,545.0,545.0,495.0,495.0,495.0,495.0,495.0,298.0,532.0,475.0,298.0,532.3333333333334,472.9111111111111,540.8222222222222,69.0,330.0,343.0,567.0,613.0,577.0
0,499.0,475.0,298.0,567.0,567.0,567.0,520.0,520.0,520.0,499.0,499.0,499.0,499.0,529.0,529.0,529.0,529.0,529.0,532.0,532.0,532.0,532.0,505.0,613.0,613.0,613.0,490.0,490.0,490.0,552.0,552.0,552.0,552.0,557.0,557.0,557.0,557.0,557.0,475.0,475.0,475.0,475.0,641.0,519.0,519.0,519.0,528.0,528.0,528.0,545.0,545.0,545.0,545.0,495.0,495.0,495.0,495.0,495.0,298.0,298.0,298.0,298.0,498.0,505.0,641.0,498.0,532.2222222222222,480.64444444444445,522.0,69.0,358.0,343.0,567.0,641.0,545.0
0,499.0,475.0,298.0,520.0,520.0,499.0,499.0,499.0,499.0,529.0,529.0,529.0,529.0,529.0,532.0,532.0,532.0,532.0,505.0,505.0,505.0,505.0,548.0,490.0,490.0,552.0,552.0,552.0,552.0,557.0,557.0,557.0,557.0,557.0,475.0,475.0,475.0,475.0,641.0,641.0,641.0,641.0,671.0,528.0,528.0,545.0,545.0,545.0,545.0,495.0,495.0,495.0,495.0,495.0,298.0,298.0,298.0,298.0,498.0,498.0,498.0,498.0,584.0,548.0,671.0,584.0,532.0444444444445,498.35555555555555,515.4888888888889,69.0,388.0,343.0,548.0,671.0,584.0
0,438.0,475.0,298.0,499.0,499.0,529.0,529.0,529.0,529.0,529.0,532.0,532.0,532.0,532.0,505.0,505.0,505.0,505.0,548.0,548.0,548.0,548.0,438.0,552.0,552.0,557.0,557.0,557.0,557.0,557.0,475.0,475.0,475.0,475.0,641.0,641.0,641.0,641.0,671.0,671.0,671.0,671.0,606.0,545.0,545.0,495.0,495.0,495.0,495.0,495.0,298.0,298.0,298.0,298.0,498.0,498.0,498.0,498.0,584.0,584.0,584.0,584.0,617.0,438.0,606.0,617.0,527.8666666666667,517.3555555555556,517.6,129.0,388.0,343.0,548.0,671.0,617.0
0,438.0,475.0,298.0,529.0,529.0,529.0,529.0,532.0,532.0,532.0,532.0,505.0,505.0,505.0,505.0,548.0,548.0,548.0,548.0,438.0,438.0,548.0,548.0,557.0,557.0,557.0,557.0,475.0,475.0,475.0,475.0,641.0,641.0,641.0,641.0,671.0,671.0,671.0,671.0,606.0,606.0,540.0,540.0,495.0,495.0,495.0,495.0,298.0,298.0,298.0,298.0,498.0,498.0,498.0,498.0,584.0,584.0,584.0,584.0,617.0,617.0,667.0,667.0,548.0,540.0,667.0,525.4444444444445,533.4444444444445,520.8222222222222,129.0,388.0,369.0,548.0,671.0,667.0
0,438.0,475.0,298.0,532.0,532.0,532.0,532.0,505.0,505.0,505.0,505.0,548.0,548.0,548.0,548.0,438.0,438.0,548.0,548.0,548.0,548.0,459.0,459.0,475.0,475.0,475.0,475.0,641.0,641.0,641.0,641.0,671.0,671.0,671.0,671.0,606.0,606.0,540.0,540.0,540.0,540.0,548.0,548.0,298.0,298.0,298.0,298.0,498.0,498.0,498.0,498.0,584.0,584.0,584.0,584.0,617.0,617.0,667.0,667.0,667.0,667.0,702.0,702.0,459.0,548.0,702.0,522.3777777777777,553.1777777777778,532.7777777777778,129.0,310.0,404.0,548.0,671.0,702.0
0,430.0,540.0,498.0,505.0,505.0,505.0,505.0,548.0,548.0,548.0,548.0,438.0,438.0,548.0,548.0,548.0,548.0,459.0,459.0,459.0,459.0,430.0,430.0,641.0,641.0,641.0,641.0,671.0,671.0,671.0,671.0,606.0,606.0,540.0,540.0,540.0,540.0,548.0,548.0,548.0,548.0,623.0,623.0,498.0,498.0,498.0,498.0,584.0,584.0,584.0,584.0,617.0,617.0,667.0,667.0,667.0,667.0,702.0,702.0,702.0,702.0,612.0,612.0,430.0,623.0,612.0,514.6888888888889,567.6666666666666,546.9555555555555,137.0,196.0,404.0,548.0,671.0,702.0
0,430.0,467.0,584.0,548.0,548.0,548.0,548.0,438.0,438.0,548.0,548.0,548.0,548.0,459.0,459.0,459.0,459.0,430.0,430.0,430.0,430.0,430.0,557.0,671.0,671.0,671.0,671.0,606.0,606.0,540.0,540.0,540.0,540.0,548.0,548.0,548.0,548.0,623.0,623.0,623.0,623.0,623.0,467.0,584.0,584.0,584.0,584.0,617.0,617.0,667.0,667.0,667.0,667.0,702.0,702.0,702.0,702.0,612.0,612.0,612.0,612.0,612.0,613.0,557.0,467.0,613.0,509.68888888888887,572.3555555555556,551.0,137.0,204.0,404.0,557.0,671.0,702.0
0,430.0,467.0,584.0,548.0,438.0,438.0,548.0,548.0,548.0,548.0,459.0,459.0,459.0,459.0,430.0,430.0,430.0,430.0,430.0,557.0,557.0,561.0,561.0,671.0,606.0,606.0,540.0,540.0,540.0,540.0,548.0,548.0,548.0,548.0,623.0,623.0,623.0,623.0,623.0,467.0,467.0,571.0,571.0,584.0,617.0,617.0,667.0,667.0,667.0,667.0,702.0,702.0,702.0,702.0,612.0,612.0,612.0,612.0,612.0,613.0,613.0,621.0,621.0,561.0,571.0,621.0,510.3333333333333,568.7111111111111,556.3333333333334,137.0,204.0,404.0,561.0,671.0,702.0
0,430.0,467.0,541.0,438.0,548.0,548.0,548.0,548.0,459.0,459.0,459.0,459.0,430.0,430.0,430.0,430.0,430.0,557.0,557.0,561.0,561.0,561.0,486.0,606.0,540.0,540.0,540.0,540.0,548.0,548.0,548.0,548.0,623.0,623.0,623.0,623.0,623.0,467.0,467.0,571.0,571.0,571.0,472.0,617.0,667.0,667.0,667.0,667.0,702.0,702.0,702.0,702.0,612.0,612.0,612.0,612.0,612.0,613.0,613.0,621.0,621.0,621.0,541.0,486.0,472.0,541.0,508.4,564.6444444444444,559.0888888888888,131.0,204.0,404.0,561.0,623.0,702.0
0,430.0,437.0,541.0,548.0,459.0,459.0,459.0,459.0,430.0,430.0,430.0,430.0,430.0,557.0,557.0,561.0,561.0,561.0,486.0,486.0,486.0,573.0,573.0,540.0,548.0,548.0,548.0,548.0,623.0,623.0,623.0,623.0,623.0,467.0,467.0,571.0,571.0,571.0,472.0,472.0,472.0,437.0,437.0,667.0,702.0,702.0,702.0,702.0,612.0,612.0,612.0,612.0,612.0,613.0,613.0,621.0,621.0,621.0,541.0,541.0,541.0,618.0,618.0,573.0,437.0,618.0,509.7111111111111,560.1111111111111,563.2888888888889,143.0,234.0,404.0,573.0,623.0,702.0
0,273.0,307.0,519.0,459.0,459.0,430.0,430.0,430.0,430.0,430.0,557.0,557.0,561.0,561.0,561.0,486.0,486.0,486.0,573.0,573.0,573.0,273.0,273.0,548.0,548.0,623.0,623.0,623.0,623.0,623.0,467.0,467.0,571.0,571.0,571.0,472.0,472.0,472.0,437.0,437.0,437.0,307.0,307.0,702.0,702.0,612.0,612.0,612.0,612.0,612.0,613.0,613.0,621.0,621.0,621.0,541.0,541.0,541.0,618.0,618.0,618.0,519.0,519.0,273.0,307.0,519.0,501.31111111111113,546.6666666666666,563.7555555555556,300.0,364.0,404.0,573.0,623.0,702.0
0,273.0,307.0,342.0,430.0,430.0,430.0,430.0,557.0,557.0,561.0,561.0,561.0,486.0,486.0,486.0,573.0,573.0,573.0,273.0,273.0,273.0,273.0,425.0,623.0,623.0,623.0,623.0,467.0,467.0,571.0,571.0,571.0,472.0,472.0,472.0,437.0,437.0,437.0,307.0,307.0,307.0,307.0,666.0,612.0,612.0,612.0,612.0,613.0,613.0,621.0,621.0,621.0,541.0,541.0,541.0,618.0,618.0,618.0,519.0,519.0,519.0,519.0,342.0,425.0,666.0,342.0,487.6222222222222,537.9777777777778,561.4222222222222,300.0,364.0,404.0,573.0,666.0,621.0
0,273.0,307.0,342.0,557.0,561.0,561.0,561.0,486.0,486.0,486.0,573.0,573.0,573.0,273.0,273.0,273.0,273.0,425.0,425.0,425.0,425.0,276.0,276.0,467.0,571.0,571.0,571.0,472.0,472.0,472.0,437.0,437.0,437.0,307.0,307.0,307.0,307.0,666.0,666.0,666.0,666.0,491.0,491.0,613.0,621.0,621.0,621.0,541.0,541.0,541.0,618.0,618.0,618.0,519.0,519.0,519.0,519.0,342.0,342.0,342.0,342.0,675.0,675.0,276.0,491.0,675.0,469.24444444444447,547.7777777777778,572.3555555555556,300.0,364.0,404.0,573.0,666.0,675.0
0,273.0,271.0,342.0,561.0,561.0,486.0,486.0,486.0,573.0,573.0,573.0,273.0,273.0,273.0,273.0,425.0,425.0,425.0,425.0,276.0,276.0,276.0,576.0,571.0,571.0,472.0,472.0,472.0,437.0,437.0,437.0,307.0,307.0,307.0,307.0,666.0,666.0,666.0,666.0,491.0,491.0,491.0,271.0,621.0,621.0,541.0,541.0,541.0,618.0,618.0,618.0,519.0,519.0,519.0,519.0,342.0,342.0,342.0,342.0,675.0,675.0,675.0,415.0,576.0,271.0,415.0,465.1333333333333,539.9111111111112,578.8888888888889,303.0,400.0,360.0,576.0,666.0,675.0
0,273.0,271.0,180.0,486.0,486.0,573.0,573.0,573.0,273.0,273.0,273.0,273.0,425.0,425.0,425.0,425.0,276.0,276.0,276.0,576.0,576.0,576.0,577.0,472.0,472.0,437.0,437.0,437.0,307.0,307.0,307.0,307.0,666.0,666.0,666.0,666.0,491.0,491.0,491.0,271.0,271.0,271.0,493.0,541.0,541.0,618.0,618.0,618.0,519.0,519.0,519.0,519.0,342.0,342.0,342.0,342.0,675.0,675.0,675.0,415.0,415.0,415.0,180.0,577.0,493.0,180.0,469.8888888888889,520.1777777777778,568.1333333333333,304.0,400.0,522.0,577.0,666.0,675.0
0,273.0,271.0,180.0,573.0,273.0,273.0,273.0,273.0,425.0,425.0,425.0,425.0,276.0,276.0,276.0,576.0,576.0,576.0,577.0,577.0,577.0,360.0,360.0,437.0,307.0,307.0,307.0,307.0,666.0,666.0,666.0,666.0,491.0,491.0,491.0,271.0,271.0,271.0,493.0,493.0,493.0,581.0,581.0,618.0,519.0,519.0,519.0,519.0,342.0,342.0,342.0,342.0,675.0,675.0,675.0,415.0,415.0,415.0,180.0,180.0,180.0,586.0,586.0,360.0,581.0,586.0,462.8222222222222,508.26666666666665,550.2666666666667,304.0,395.0,522.0,577.0,666.0,675.0
0,273.0,271.0,180.0,273.0,425.0,425.0,425.0,425.0,276.0,276.0,276.0,576.0,576.0,576.0,577.0,577.0,577.0,360.0,360.0,360.0,360.0,564.0,564.0,307.0,666.0,666.0,666.0,666.0,491.0,491.0,491.0,271.0,271.0,271.0,493.0,493.0,493.0,581.0,581.0,581.0,581.0,611.0,611.0,519.0,342.0,342.0,342.0,342.0,675.0,675.0,675.0,415.0,415.0,415.0,180.0,180.0,180.0,586.0,586.0,586.0,586.0,554.0,554.0,564.0,611.0,554.0,460.06666666666666,510.31111111111113,543.8666666666667,304.0,395.0,522.0,577.0,666.0,675.0
0,276.0,271.0,180.0,425.0,425.0,276.0,276.0,276.0,576.0,576.0,576.0,577.0,577.0,577.0,360.0,360.0,360.0,360.0,564.0,564.0,564.0,564.0,603.0,666.0,666.0,491.0,491.0,491.0,271.0,271.0,271.0,493.0,493.0,493.0,581.0,581.0,581.0,581.0,611.0,611.0,611.0,611.0,637.0,342.0,342.0,675.0,675.0,675.0,415.0,415.0,415.0,180.0,180.0,180.0,586.0,586.0,586.0,586.0,554.0,554.0,554.0,554.0,483.0,603.0,637.0,483.0,463.97777777777776,515.4444444444445,533.9777777777778,330.0,395.0,522.0,603.0,666.0,675.0
0,276.0,271.0,180.0,276.0,576.0,576.0,576.0,577.0,577.0,577.0,360.0,360.0,360.0,360.0,564.0,564.0,564.0,564.0,603.0,603.0,603.0,636.0,636.0,491.0,271.0,271.0,271.0,493.0,493.0,493.0,581.0,581.0,581.0,581.0,611.0,611.0,611.0,611.0,637.0,637.0,637.0,493.0,493.0,675.0,415.0,415.0,415.0,180.0,180.0,180.0,586.0,586.0,586.0,586.0,554.0,554.0,554.0,554.0,483.0,483.0,483.0,490.0,490.0,636.0,493.0,490.0,474.31111111111113,518.1777777777778,519.5333333333333,363.0,395.0,495.0,636.0,637.0,675.0
0,360.0,271.0,180.0,576.0,577.0,577.0,577.0,360.0,360.0,360.0,360.0,564.0,564.0,564.0,564.0,603.0,603.0,603.0,636.0,636.0,636.0,472.0,472.0,271.0,493.0,493.0,493.0,581.0,581.0,581.0,581.0,611.0,611.0,611.0,611.0,637.0,637.0,637.0,493.0,493.0,493.0,754.0,754.0,415.0,180.0,180.0,180.0,586.0,586.0,586.0,586.0,554.0,554.0,554.0,554.0,483.0,483.0,483.0,490.0,490.0,490.0,382.0,382.0,472.0,754.0,382.0,485.3333333333333,518.2222222222222,503.8888888888889,363.0,483.0,495.0,636.0,754.0,586.0
0,360.0,493.0,382.0,360.0,360.0,360.0,360.0,564.0,564.0,564.0,564.0,603.0,603.0,603.0,636.0,636.0,636.0,472.0,472.0,472.0,472.0,488.0,488.0,581.0,581.0,581.0,581.0,611.0,611.0,611.0,611.0,637.0,637.0,637.0,493.0,493.0,493.0,754.0,754.0,754.0,754.0,743.0,743.0,586.0,586.0,586.0,586.0,554.0,554.0,554.0,554.0,483.0,483.0,483.0,490.0,490.0,490.0,382.0,382.0,382.0,382.0,604.0,604.0,488.0,743.0,604.0,481.22222222222223,537.4666666666667,493.06666666666666,363.0,483.0,495.0,636.0,754.0,604.0
0,472.0,493.0,382.0,564.0,564.0,564.0,564.0,603.0,603.0,603.0,636.0,636.0,636.0,472.0,472.0,472.0,472.0,488.0,488.0,488.0,488.0,484.0,484.0,611.0,611.0,611.0,611.0,637.0,637.0,637.0,493.0,493.0,493.0,754.0,754.0,754.0,754.0,743.0,743.0,743.0,743.0,629.0,629.0,554.0,554.0,554.0,554.0,483.0,483.0,483.0,490.0,490.0,490.0,382.0,382.0,382.0,382.0,604.0,604.0,604.0,604.0,473.0,473.0,484.0,629.0,473.0,477.8888888888889,552.0888888888888,489.2888888888889,363.0,483.0,495.0,636.0,754.0,604.0
0,472.0,493.0,382.0,603.0,603.0,603.0,636.0,636.0,636.0,472.0,472.0,472.0,472.0,488.0,488.0,488.0,484.0,484.0,484.0,484.0,484.0,484.0,418.0,637.0,637.0,637.0,493.0,493.0,493.0,754.0,754.0,754.0,754.0,743.0,743.0,743.0,629.0,629.0,629.0,629.0,629.0,629.0,523.0,483.0,483.0,483.0,490.0,490.0,490.0,382.0,382.0,382.0,382.0,604.0,604.0,604.0,473.0,473.0,473.0,473.0,473.0,473.0,392.0,484.0,629.0,473.0,471.9111111111111,568.3777777777777,478.1111111111111,363.0,483.0,495.0,636.0,754.0,604.0
0,418.0,493.0,382.0,636.0,472.0,472.0,472.0,472.0,488.0,488.0,488.0,488.0,484.0,484.0,484.0,484.0,484.0,484.0,418.0,418.0,418.0,687.0,687.0,493.0,754.0,754.0,754.0,754.0,743.0,743.0,743.0,743.0,629.0,629.0,629.0,629.0,629.0,629.0,523.0,523.0,523.0,538.0,538.0,490.0,382.0,382.0,382.0,382.0,604.0,604.0,604.0,604.0,473.0,473.0,473.0,473.0,473.0,473.0,392.0,392.0,392.0,404.0,404.0,687.0,538.0,404.0,496.6,585.0666666666667,468.46666666666664,411.0,483.0,495.0,687.0,754.0,604.0
0,418.0,523.0,380.0,472.0,472.0,488.0,488.0,488.0,488.0,484.0,484.0,484.0,484.0,484.0,484.0,418.0,418.0,418.0,687.0,687.0,687.0,574.0,574.0,754.0,754.0,743.0,743.0,743.0,743.0,629.0,629.0,629.0,629.0,629.0,629.0,523.0,523.0,523.0,538.0,538.0,538.0,637.0,637.0,382.0,382.0,604.0,604.0,604.0,604.0,473.0,473.0,473.0,473.0,473.0,473.0,392.0,392.0,392.0,404.0,404.0,404.0,380.0,380.0,574.0,637.0,380.0,509.0444444444444,580.9333333333333,471.53333333333336,411.0,483.0,495.0,687.0,754.0,604.0
0,418.0,460.0,380.0,488.0,488.0,484.0,484.0,484.0,484.0,484.0,484.0,418.0,418.0,418.0,687.0,687.0,687.0,574.0,574.0,574.0,574.0,568.0,568.0,743.0,743.0,629.0,629.0,629.0,629.0,629.0,629.0,523.0,523.0,523.0,538.0,538.0,538.0,637.0,637.0,637.0,637.0,460.0,460.0,604.0,604.0,473.0,473.0,473.0,473.0,473.0,473.0,392.0,392.0,392.0,404.0,404.0,404.0,380.0,380.0,380.0,380.0,657.0,657.0,568.0,460.0,657.0,528.6,590.9333333333333,463.4,327.0,483.0,477.0,687.0,743.0,657.0
0,310.0,460.0,380.0,484.0,484.0,484.0,484.0,484.0,418.0,418.0,418.0,687.0,687.0,687.0,574.0,574.0,574.0,574.0,568.0,568.0,568.0,310.0,310.0,629.0,629.0,629.0,629.0,629.0,523.0,523.0,523.0,538.0,538.0,538.0,637.0,637.0,637.0,637.0,460.0,460.0,460.0,764.0,764.0,473.0,473.0,473.0,473.0,473.0,392.0,392.0,392.0,404.0,404.0,404.0,380.0,380.0,380.0,380.0,657.0,657.0,657.0,645.0,645.0,310.0,764.0,645.0,516.5777777777778,612.1111111111111,484.22222222222223,377.0,304.0,477.0,687.0,764.0,657.0
0,310.0,460.0,380.0,484.0,484.0,418.0,418.0,418.0,687.0,687.0,687.0,574.0,574.0,574.0,574.0,568.0,568.0,568.0,310.0,310.0,310.0,310.0,547.0,629.0,629.0,523.0,523.0,523.0,538.0,538.0,538.0,637.0,637.0,637.0,637.0,460.0,460.0,460.0,764.0,764.0,764.0,764.0,573.0,473.0,473.0,392.0,392.0,392.0,404.0,404.0,404.0,380.0,380.0,380.0,380.0,657.0,657.0,657.0,645.0,645.0,645.0,645.0,601.0,547.0,573.0,601.0,508.8666666666667,623.9777777777778,505.22222222222223,377.0,304.0,277.0,687.0,764.0,657.0
0,310.0,460.0,380.0,687.0,687.0,687.0,574.0,574.0,574.0,574.0,568.0,568.0,568.0,310.0,310.0,310.0,310.0,547.0,547.0,547.0,547.0,497.0,497.0,538.0,538.0,538.0,637.0,637.0,637.0,637.0,460.0,460.0,460.0,764.0,764.0,764.0,764.0,573.0,573.0,573.0,573.0,530.0,530.0,404.0,404.0,404.0,380.0,380.0,380.0,380.0,657.0,657.0,657.0,645.0,645.0,645.0,645.0,601.0,601.0,601.0,601.0,678.0,678.0,497.0,530.0,678.0,518.3555555555556,619.8444444444444,511.73333333333335,377.0,304.0,298.0,687.0,764.0,678.0
0,310.0,253.0,380.0,574.0,574.0,574.0,574.0,568.0,568.0,568.0,310.0,310.0,310.0,310.0,547.0,547.0,547.0,547.0,497.0,497.0,497.0,497.0,556.0,637.0,637.0,637.0,637.0,460.0,460.0,460.0,764.0,764.0,764.0,764.0,573.0,573.0,573.0,573.0,530.0,530.0,530.0,530.0,253.0,380.0,380.0,380.0,380.0,657.0,657.0,657.0,645.0,645.0,645.0,645.0,601.0,601.0,601.0,601.0,678.0,678.0,678.0,678.0,487.0,556.0,253.0,487.0,514.3333333333334,607.7111111111111,517.3333333333334,377.0,511.0,298.0,574.0,764.0,678.0
0,310.0,253.0,380.0,574.0,568.0,568.0,568.0,310.0,310.0,310.0,310.0,547.0,547.0,547.0,547.0,497.0,497.0,497.0,497.0,556.0,556.0,453.0,453.0,637.0,460.0,460.0,460.0,764.0,764.0,764.0,764.0,573.0,573.0,573.0,573.0,530.0,530.0,530.0,530.0,253.0,253.0,491.0,491.0,380.0,657.0,657.0,657.0,645.0,645.0,645.0,645.0,601.0,601.0,601.0,601.0,678.0,678.0,678.0,678.0,487.0,487.0,384.0,384.0,453.0,491.0,384.0,505.8888888888889,595.8888888888889,512.8666666666667,377.0,511.0,298.0,574.0,764.0,678.0
0,310.0,253.0,384.0,568.0,310.0,310.0,310.0,310.0,547.0,547.0,547.0,547.0,497.0,497.0,497.0,497.0,556.0,556.0,453.0,453.0,453.0,453.0,730.0,460.0,764.0,764.0,764.0,764.0,573.0,573.0,573.0,573.0,530.0,530.0,530.0,530.0,253.0,253.0,491.0,491.0,491.0,491.0,430.0,657.0,645.0,645.0,645.0,645.0,601.0,601.0,601.0,601.0,678.0,678.0,678.0,678.0,487.0,487.0,384.0,384.0,384.0,384.0,626.0,730.0,430.0,626.0,503.4888888888889,588.6,513.5777777777778,420.0,511.0,298.0,730.0,764.0,678.0
0,310.0,253.0,384.0,310.0,310.0,547.0,547.0,547.0,547.0,497.0,497.0,497.0,497.0,556.0,556.0,453.0,453.0,453.0,453.0,730.0,730.0,493.0,493.0,764.0,764.0,573.0,573.0,573.0,573.0,530.0,530.0,530.0,530.0,253.0,253.0,491.0,491.0,491.0,491.0,430.0,430.0,350.0,350.0,645.0,645.0,601.0,601.0,601.0,601.0,678.0,678.0,678.0,678.0,487.0,487.0,384.0,384.0,384.0,384.0,626.0,626.0,423.0,423.0,493.0,350.0,423.0,510.15555555555557,563.4444444444445,520.8222222222222,420.0,511.0,298.0,730.0,764.0,678.0
0,453.0,186.0,384.0,547.0,547.0,547.0,497.0,497.0,497.0,497.0,556.0,556.0,453.0,453.0,453.0,453.0,730.0,730.0,493.0,493.0,493.0,581.0,581.0,573.0,573.0,573.0,530.0,530.0,530.0,530.0,253.0,253.0,491.0,491.0,491.0,491.0,430.0,430.0,350.0,350.0,350.0,186.0,186.0,601.0,601.0,601.0,678.0,678.0,678.0,678.0,487.0,487.0,384.0,384.0,384.0,384.0,626.0,626.0,423.0,423.0,423.0,724.0,724.0,581.0,186.0,724.0,514.4,529.9555555555555,522.1333333333333,420.0,578.0,344.0,730.0,573.0,724.0
0,428.0,186.0,384.0,497.0,497.0,497.0,556.0,556.0,453.0,453.0,453.0,453.0,730.0,730.0,493.0,493.0,493.0,581.0,581.0,581.0,581.0,428.0,428.0,530.0,530.0,530.0,253.0,253.0,491.0,491.0,491.0,491.0,430.0,430.0,350.0,350.0,350.0,186.0,186.0,186.0,186.0,578.0,578.0,678.0,678.0,678.0,487.0,487.0,384.0,384.0,384.0,384.0,626.0,626.0,423.0,423.0,423.0,724.0,724.0,724.0,724.0,573.0,573.0,428.0,578.0,573.0,516.1333333333333,505.46666666666664,534.8222222222222,420.0,578.0,344.0,730.0,578.0,724.0
0,428.0,186.0,384.0,497.0,556.0,556.0,453.0,453.0,453.0,453.0,730.0,730.0,493.0,493.0,493.0,581.0,581.0,581.0,581.0,428.0,428.0,428.0,435.0,530.0,253.0,253.0,491.0,491.0,491.0,491.0,430.0,430.0,350.0,350.0,350.0,186.0,186.0,186.0,186.0,578.0,578.0,578.0,496.0,678.0,487.0,487.0,384.0,384.0,384.0,384.0,626.0,626.0,423.0,423.0,423.0,724.0,724.0,724.0,724.0,573.0,573.0,573.0,648.0,435.0,496.0,648.0,513.8,501.3777777777778,540.9333333333333,420.0,578.0,344.0,730.0,578.0,724.0
0,366.0,186.0,384.0,453.0,453.0,730.0,730.0,493.0,493.0,493.0,581.0,581.0,581.0,581.0,428.0,428.0,428.0,435.0,435.0,435.0,435.0,366.0,366.0,491.0,491.0,430.0,430.0,350.0,350.0,350.0,186.0,186.0,186.0,186.0,578.0,578.0,578.0,496.0,496.0,496.0,496.0,583.0,583.0,384.0,384.0,626.0,626.0,423.0,423.0,423.0,724.0,724.0,724.0,724.0,573.0,573.0,573.0,648.0,648.0,648.0,648.0,564.0,564.0,366.0,583.0,564.0,505.1777777777778,499.55555555555554,563.5777777777778,420.0,578.0,344.0,730.0,583.0,724.0
0,366.0,186.0,423.0,493.0,493.0,493.0,581.0,581.0,581.0,581.0,428.0,428.0,428.0,435.0,435.0,435.0,435.0,366.0,366.0,366.0,366.0,437.0,437.0,350.0,350.0,350.0,186.0,186.0,186.0,186.0,578.0,578.0,578.0,496.0,496.0,496.0,496.0,583.0,583.0,583.0,583.0,414.0,414.0,423.0,423.0,423.0,724.0,724.0,724.0,724.0,573.0,573.0,573.0,648.0,648.0,648.0,648.0,564.0,564.0,564.0,564.0,482.0,482.0,437.0,414.0,482.0,484.8222222222222,491.64444444444445,575.2222222222222,420.0,578.0,344.0,581.0,583.0,724.0
0,366.0,186.0,355.0,493.0,581.0,581.0,581.0,581.0,428.0,428.0,428.0,435.0,435.0,435.0,435.0,366.0,366.0,366.0,366.0,437.0,437.0,437.0,671.0,350.0,186.0,186.0,186.0,186.0,578.0,578.0,578.0,496.0,496.0,496.0,496.0,583.0,583.0,583.0,583.0,414.0,414.0,414.0,453.0,423.0,724.0,724.0,724.0,724.0,573.0,573.0,573.0,648.0,648.0,648.0,648.0,564.0,564.0,564.0,564.0,482.0,482.0,482.0,355.0,671.0,453.0,355.0,483.93333333333334,482.6,576.9333333333333,420.0,578.0,369.0,671.0,583.0,724.0
0,366.0,414.0,355.0,428.0,428.0,428.0,435.0,435.0,435.0,435.0,366.0,366.0,366.0,366.0,437.0,437.0,437.0,671.0,671.0,671.0,671.0,671.0,453.0,578.0,578.0,578.0,496.0,496.0,496.0,496.0,583.0,583.0,583.0,583.0,414.0,414.0,414.0,453.0,453.0,453.0,453.0,453.0,550.0,573.0,573.0,573.0,648.0,648.0,648.0,648.0,564.0,564.0,564.0,564.0,482.0,482.0,482.0,355.0,355.0,355.0,355.0,355.0,547.0,453.0,550.0,547.0,502.0,470.46666666666664,548.1777777777778,420.0,578.0,369.0,671.0,583.0,648.0
0,366.0,414.0,355.0,435.0,435.0,435.0,435.0,366.0,366.0,366.0,366.0,437.0,437.0,437.0,671.0,671.0,671.0,671.0,453.0,453.0,453.0,483.0,483.0,496.0,496.0,496.0,496.0,583.0,583.0,583.0,583.0,414.0,414.0,414.0,453.0,453.0,453.0,453.0,550.0,550.0,550.0,682.0,682.0,648.0,648.0,648.0,648.0,564.0,564.0,564.0,564.0,482.0,482.0,482.0,355.0,355.0,355.0,355.0,547.0,547.0,547.0,548.0,548.0,483.0,682.0,548.0,506.93333333333334,463.3777777777778,542.6444444444444,364.0,496.0,369.0,671.0,682.0,648.0
0,366.0,414.0,355.0,366.0,366.0,366.0,366.0,437.0,437.0,437.0,671.0,671.0,671.0,671.0,671.0,453.0,453.0,453.0,483.0,483.0,483.0,546.0,546.0,583.0,583.0,583.0,583.0,414.0,414.0,414.0,453.0,453.0,453.0,453.0,453.0,550.0,550.0,550.0,682.0,682.0,682.0,561.0,561.0,564.0,564.0,564.0,564.0,482.0,482.0,482.0,355.0,355.0,355.0,355.0,355.0,547.0,547.0,547.0,548.0,548.0,548.0,586.0,586.0,546.0,561.0,586.0,505.15555555555557,468.64444444444445,537.9111111111112,364.0,496.0,369.0,671.0,682.0,586.0
0,366.0,414.0,261.0,366.0,437.0,437.0,437.0,671.0,671.0,671.0,671.0,671.0,453.0,453.0,453.0,483.0,483.0,483.0,546.0,546.0,546.0,546.0,532.0,583.0,414.0,414.0,414.0,453.0,453.0,453.0,453.0,453.0,550.0,550.0,550.0,682.0,682.0,682.0,561.0,561.0,561.0,561.0,661.0,564.0,482.0,482.0,482.0,355.0,355.0,355.0,355.0,355.0,547.0,547.0,547.0,548.0,548.0,548.0,586.0,586.0,586.0,586.0,261.0,532.0,661.0,261.0,508.1111111111111,472.93333333333334,524.5555555555555,364.0,496.0,463.0,671.0,682.0,586.0
0,451.0,453.0,261.0,671.0,671.0,671.0,671.0,671.0,453.0,453.0,453.0,483.0,483.0,483.0,546.0,546.0,546.0,546.0,532.0,532.0,532.0,451.0,451.0,453.0,453.0,453.0,453.0,453.0,550.0,550.0,550.0,682.0,682.0,682.0,561.0,561.0,561.0,561.0,661.0,661.0,661.0,602.0,602.0,355.0,355.0,355.0,355.0,355.0,547.0,547.0,547.0,548.0,548.0,548.0,586.0,586.0,586.0,586.0,261.0,261.0,261.0,632.0,632.0,451.0,602.0,632.0,506.9555555555556,496.0,525.5333333333333,364.0,496.0,463.0,671.0,682.0,632.0
0,451.0,550.0,261.0,453.0,453.0,453.0,483.0,483.0,483.0,546.0,546.0,546.0,546.0,532.0,532.0,532.0,451.0,451.0,451.0,451.0,451.0,471.0,471.0,550.0,550.0,550.0,682.0,682.0,682.0,561.0,561.0,561.0,561.0,661.0,661.0,661.0,602.0,602.0,602.0,602.0,602.0,706.0,706.0,547.0,547.0,547.0,548.0,548.0,548.0,586.0,586.0,586.0,586.0,261.0,261.0,261.0,632.0,632.0,632.0,632.0,632.0,405.0,405.0,471.0,706.0,405.0,494.4222222222222,518.8,531.3777777777777,305.0,520.0,463.0,546.0,706.0,632.0
0,451.0,561.0,261.0,483.0,483.0,546.0,546.0,546.0,546.0,532.0,532.0,532.0,451.0,451.0,451.0,451.0,451.0,471.0,471.0,471.0,471.0,468.0,468.0,682.0,682.0,561.0,561.0,561.0,561.0,661.0,661.0,661.0,602.0,602.0,602.0,602.0,602.0,706.0,706.0,706.0,706.0,708.0,708.0,548.0,548.0,586.0,586.0,586.0,586.0,261.0,261.0,261.0,632.0,632.0,632.0,632.0,632.0,405.0,405.0,405.0,405.0,581.0,581.0,468.0,708.0,581.0,488.4222222222222,557.8222222222222,524.2222222222222,305.0,522.0,463.0,546.0,708.0,632.0
0,435.0,561.0,261.0,546.0,546.0,532.0,532.0,532.0,451.0,451.0,451.0,451.0,451.0,471.0,471.0,471.0,471.0,468.0,468.0,468.0,468.0,435.0,435.0,561.0,561.0,661.0,661.0,661.0,602.0,602.0,602.0,602.0,602.0,706.0,706.0,706.0,706.0,708.0,708.0,708.0,708.0,710.0,710.0,586.0,586.0,261.0,261.0,261.0,632.0,632.0,632.0,632.0,632.0,405.0,405.0,405.0,405.0,581.0,581.0,581.0,581.0,728.0,728.0,435.0,710.0,728.0,483.7111111111111,586.8888888888889,524.7555555555556,305.0,296.0,467.0,546.0,710.0,728.0
0,435.0,602.0,261.0,532.0,451.0,451.0,451.0,451.0,451.0,471.0,471.0,471.0,471.0,468.0,468.0,468.0,468.0,435.0,435.0,435.0,435.0,489.0,489.0,661.0,602.0,602.0,602.0,602.0,602.0,706.0,706.0,706.0,706.0,708.0,708.0,708.0,708.0,710.0,710.0,710.0,710.0,656.0,656.0,261.0,632.0,632.0,632.0,632.0,632.0,405.0,405.0,405.0,405.0,581.0,581.0,581.0,581.0,728.0,728.0,728.0,728.0,702.0,702.0,489.0,656.0,702.0,486.26666666666665,601.6888888888889,532.3777777777777,305.0,296.0,467.0,532.0,710.0,728.0
0,435.0,214.0,405.0,451.0,451.0,451.0,471.0,471.0,471.0,471.0,468.0,468.0,468.0,468.0,435.0,435.0,435.0,435.0,489.0,489.0,489.0,716.0,716.0,602.0,602.0,602.0,706.0,706.0,706.0,706.0,708.0,708.0,708.0,708.0,710.0,710.0,710.0,710.0,656.0,656.0,656.0,214.0,214.0,632.0,632.0,632.0,405.0,405.0,405.0,405.0,581.0,581.0,581.0,581.0,728.0,728.0,728.0,728.0,702.0,702.0,702.0,633.0,633.0,716.0,214.0,633.0,503.02222222222224,588.8444444444444,536.6444444444444,350.0,496.0,467.0,716.0,710.0,728.0
0,435.0,214.0,405.0,471.0,471.0,471.0,468.0,468.0,468.0,468.0,435.0,435.0,435.0,435.0,489.0,489.0,489.0,716.0,716.0,716.0,716.0,716.0,551.0,706.0,706.0,706.0,708.0,708.0,708.0,708.0,710.0,710.0,710.0,710.0,656.0,656.0,656.0,214.0,214.0,214.0,214.0,214.0,507.0,405.0,405.0,405.0,581.0,581.0,581.0,581.0,728.0,728.0,728.0,728.0,702.0,702.0,702.0,633.0,633.0,633.0,633.0,633.0,409.0,551.0,507.0,409.0,527.3111111111111,570.0666666666667,541.4444444444445,281.0,496.0,467.0,716.0,710.0,728.0
0,435.0,3.0,409.0,468.0,468.0,435.0,435.0,435.0,435.0,489.0,489.0,489.0,716.0,716.0,716.0,716.0,716.0,551.0,551.0,551.0,551.0,769.0,769.0,708.0,708.0,710.0,710.0,710.0,710.0,656.0,656.0,656.0,214.0,214.0,214.0,214.0,214.0,507.0,507.0,507.0,507.0,3.0,3.0,581.0,581.0,728.0,728.0,728.0,728.0,702.0,702.0,702.0,633.0,633.0,633.0,633.0,633.0,409.0,409.0,409.0,409.0,577.0,577.0,769.0,3.0,577.0,528.8666666666667,554.5333333333333,552.0888888888888,334.0,707.0,467.0,769.0,710.0,728.0
0,435.0,3.0,409.0,435.0,435.0,489.0,489.0,489.0,716.0,716.0,716.0,716.0,716.0,551.0,551.0,551.0,551.0,769.0,769.0,769.0,769.0,510.0,510.0,710.0,710.0,656.0,656.0,656.0,214.0,214.0,214.0,214.0,214.0,507.0,507.0,507.0,507.0,3.0,3.0,3.0,3.0,445.0,445.0,728.0,728.0,702.0,702.0,702.0,633.0,633.0,633.0,633.0,633.0,409.0,409.0,409.0,409.0,577.0,577.0,577.0,577.0,568.0,568.0,510.0,445.0,568.0,540.6,527.7111111111111,558.6222222222223,334.0,707.0,467.0,769.0,710.0,728.0
0,489.0,3.0,409.0,489.0,489.0,716.0,716.0,716.0,716.0,716.0,551.0,551.0,551.0,551.0,769.0,769.0,769.0,769.0,510.0,510.0,510.0,510.0,510.0,656.0,656.0,214.0,214.0,214.0,214.0,214.0,507.0,507.0,507.0,507.0,3.0,3.0,3.0,3.0,445.0,445.0,445.0,445.0,445.0,702.0,702.0,633.0,633.0,633.0,633.0,633.0,409.0,409.0,409.0,409.0,577.0,577.0,577.0,577.0,568.0,568.0,568.0,568.0,568.0,510.0,445.0,568.0,542.4,511.9111111111111,559.9555555555555,334.0,707.0,467.0,769.0,656.0,702.0
0,345.0,3.0,409.0,716.0,716.0,551.0,551.0,551.0,551.0,769.0,769.0,769.0,769.0,510.0,510.0,510.0,510.0,510.0,639.0,639.0,639.0,345.0,345.0,214.0,214.0,507.0,507.0,507.0,507.0,3.0,3.0,3.0,3.0,445.0,445.0,445.0,445.0,445.0,271.0,271.0,271.0,368.0,368.0,633.0,633.0,409.0,409.0,409.0,409.0,577.0,577.0,577.0,577.0,568.0,568.0,568.0,568.0,568.0,654.0,654.0,654.0,454.0,454.0,345.0,368.0,454.0,539.9777777777778,481.77777777777777,565.8444444444444,424.0,707.0,467.0,769.0,507.0,654.0
0,345.0,3.0,409.0,551.0,551.0,769.0,769.0,769.0,769.0,510.0,510.0,510.0,510.0,510.0,639.0,639.0,639.0,345.0,345.0,345.0,345.0,510.0,510.0,507.0,507.0,3.0,3.0,3.0,3.0,445.0,445.0,445.0,445.0,445.0,271.0,271.0,271.0,368.0,368.0,368.0,368.0,292.0,292.0,409.0,409.0,577.0,577.0,577.0,577.0,568.0,568.0,568.0,568.0,568.0,654.0,654.0,654.0,454.0,454.0,454.0,454.0,647.0,647.0,510.0,292.0,647.0,534.2888888888889,454.97777777777776,575.0888888888888,424.0,707.0,323.0,769.0,507.0,654.0
0,345.0,3.0,454.0,769.0,769.0,510.0,510.0,510.0,510.0,510.0,639.0,639.0,639.0,345.0,345.0,345.0,345.0,510.0,510.0,510.0,510.0,368.0,368.0,3.0,3.0,445.0,445.0,445.0,445.0,445.0,271.0,271.0,271.0,368.0,368.0,368.0,368.0,292.0,292.0,292.0,292.0,586.0,586.0,577.0,577.0,568.0,568.0,568.0,568.0,568.0,654.0,654.0,654.0,454.0,454.0,454.0,454.0,647.0,647.0,647.0,647.0,532.0,532.0,368.0,586.0,532.0,532.7777777777778,438.1777777777778,576.3555555555556,424.0,707.0,323.0,769.0,586.0,654.0
0,345.0,271.0,180.0,510.0,510.0,510.0,510.0,639.0,639.0,639.0,345.0,345.0,345.0,345.0,510.0,510.0,510.0,368.0,368.0,368.0,368.0,575.0,575.0,445.0,445.0,445.0,445.0,271.0,271.0,271.0,368.0,368.0,368.0,368.0,292.0,292.0,292.0,586.0,586.0,586.0,586.0,524.0,524.0,568.0,568.0,568.0,568.0,654.0,654.0,654.0,454.0,454.0,454.0,454.0,647.0,647.0,647.0,532.0,532.0,532.0,532.0,180.0,180.0,575.0,524.0,180.0,530.5111111111111,428.8,577.0,424.0,707.0,548.0,639.0,586.0,654.0
0,345.0,271.0,180.0,639.0,639.0,639.0,345.0,345.0,345.0,345.0,510.0,510.0,510.0,510.0,368.0,368.0,368.0,368.0,575.0,575.0,575.0,575.0,468.0,271.0,271.0,271.0,368.0,368.0,368.0,368.0,292.0,292.0,292.0,292.0,586.0,586.0,586.0,586.0,524.0,524.0,524.0,524.0,310.0,654.0,654.0,654.0,454.0,454.0,454.0,454.0,647.0,647.0,647.0,647.0,532.0,532.0,532.0,532.0,180.0,180.0,180.0,180.0,613.0,468.0,310.0,613.0,537.6444444444444,407.68888888888887,550.9777777777778,424.0,707.0,548.0,639.0,586.0,654.0
0,345.0,292.0,180.0,345.0,345.0,345.0,510.0,510.0,510.0,510.0,368.0,368.0,368.0,368.0,575.0,575.0,575.0,575.0,468.0,468.0,468.0,516.0,516.0,368.0,368.0,368.0,292.0,292.0,292.0,292.0,586.0,586.0,586.0,586.0,524.0,524.0,524.0,524.0,310.0,310.0,310.0,481.0,481.0,454.0,454.0,454.0,647.0,647.0,647.0,647.0,532.0,532.0,532.0,532.0,180.0,180.0,180.0,180.0,613.0,613.0,613.0,466.0,466.0,516.0,481.0,466.0,542.7111111111111,379.73333333333335,534.2222222222222,424.0,653.0,522.0,575.0,586.0,647.0
0,368.0,292.0,180.0,510.0,510.0,510.0,368.0,368.0,368.0,368.0,575.0,575.0,575.0,575.0,468.0,468.0,468.0,516.0,516.0,516.0,516.0,498.0,498.0,292.0,292.0,292.0,586.0,586.0,586.0,586.0,524.0,524.0,524.0,524.0,310.0,310.0,310.0,481.0,481.0,481.0,481.0,562.0,562.0,647.0,647.0,647.0,532.0,532.0,532.0,532.0,180.0,180.0,180.0,180.0,613.0,613.0,613.0,466.0,466.0,466.0,466.0,556.0,556.0,498.0,562.0,556.0,539.2666666666667,377.6,518.7777777777778,424.0,583.0,474.0,575.0,586.0,647.0
0,368.0,305.0,180.0,368.0,368.0,368.0,368.0,575.0,575.0,575.0,575.0,468.0,468.0,468.0,516.0,516.0,516.0,516.0,498.0,498.0,498.0,498.0,696.0,586.0,586.0,586.0,586.0,524.0,524.0,524.0,524.0,310.0,310.0,310.0,481.0,481.0,481.0,481.0,562.0,562.0,562.0,562.0,305.0,532.0,532.0,532.0,532.0,180.0,180.0,180.0,180.0,613.0,613.0,613.0,466.0,466.0,466.0,466.0,556.0,556.0,556.0,556.0,591.0,696.0,305.0,591.0,529.1333333333333,395.0888888888889,514.4222222222222,424.0,583.0,474.0,696.0,586.0,613.0
0,468.0,305.0,180.0,575.0,575.0,575.0,468.0,468.0,468.0,516.0,516.0,516.0,516.0,498.0,498.0,498.0,498.0,696.0,696.0,696.0,696.0,550.0,550.0,524.0,524.0,524.0,310.0,310.0,310.0,481.0,481.0,481.0,481.0,562.0,562.0,562.0,562.0,305.0,305.0,305.0,305.0,589.0,589.0,180.0,180.0,180.0,613.0,613.0,613.0,466.0,466.0,466.0,466.0,556.0,556.0,556.0,556.0,591.0,591.0,591.0,591.0,360.0,360.0,550.0,589.0,360.0,535.0888888888888,391.77777777777777,519.4,424.0,586.0,474.0,696.0,589.0,613.0
0,468.0,305.0,360.0,468.0,468.0,468.0,516.0,516.0,516.0,516.0,498.0,498.0,498.0,498.0,696.0,696.0,696.0,696.0,550.0,550.0,550.0,550.0,518.0,310.0,310.0,310.0,481.0,481.0,481.0,481.0,562.0,562.0,562.0,562.0,305.0,305.0,305.0,305.0,589.0,589.0,589.0,589.0,456.0,613.0,613.0,613.0,466.0,466.0,466.0,466.0,556.0,556.0,556.0,556.0,591.0,591.0,591.0,591.0,360.0,360.0,360.0,360.0,736.0,518.0,456.0,736.0,519.7777777777778,427.8888888888889,513.2888888888889,424.0,586.0,556.0,696.0,589.0,736.0
0,372.0,305.0,360.0,516.0,516.0,498.0,498.0,498.0,498.0,696.0,696.0,696.0,696.0,550.0,550.0,550.0,550.0,518.0,518.0,518.0,518.0,372.0,372.0,481.0,481.0,562.0,562.0,562.0,562.0,305.0,305.0,305.0,305.0,589.0,589.0,589.0,589.0,456.0,456.0,456.0,456.0,637.0,637.0,466.0,466.0,556.0,556.0,556.0,556.0,591.0,591.0,591.0,591.0,360.0,360.0,360.0,360.0,736.0,736.0,736.0,736.0,548.0,548.0,372.0,637.0,548.0,508.4222222222222,446.97777777777776,523.4,351.0,366.0,556.0,696.0,637.0,736.0
0,372.0,259.0,360.0,498.0,498.0,498.0,696.0,696.0,696.0,696.0,550.0,550.0,550.0,550.0,518.0,518.0,518.0,518.0,372.0,372.0,372.0,656.0,656.0,562.0,562.0,562.0,305.0,305.0,305.0,305.0,589.0,589.0,589.0,589.0,456.0,456.0,456.0,456.0,637.0,637.0,637.0,259.0,259.0,556.0,556.0,556.0,591.0,591.0,591.0,591.0,360.0,360.0,360.0,360.0,736.0,736.0,736.0,736.0,548.0,548.0,548.0,524.0,524.0,656.0,259.0,524.0,506.1111111111111,450.7111111111111,517.1777777777778,351.0,378.0,556.0,696.0,637.0,736.0
0,372.0,259.0,344.0,696.0,696.0,696.0,550.0,550.0,550.0,550.0,518.0,518.0,518.0,518.0,372.0,372.0,372.0,656.0,656.0,656.0,656.0,520.0,520.0,305.0,305.0,305.0,589.0,589.0,589.0,589.0,456.0,456.0,456.0,456.0,637.0,637.0,637.0,259.0,259.0,259.0,259.0,575.0,575.0,591.0,591.0,591.0,360.0,360.0,360.0,360.0,736.0,736.0,736.0,736.0,548.0,548.0,548.0,524.0,524.0,524.0,524.0,344.0,344.0,520.0,575.0,344.0,521.1777777777778,457.22222222222223,510.9555555555556,351.0,378.0,556.0,696.0,637.0,736.0
0,372.0,259.0,344.0,550.0,550.0,550.0,550.0,518.0,518.0,518.0,518.0,372.0,372.0,372.0,656.0,656.0,656.0,656.0,520.0,520.0,520.0,582.0,582.0,589.0,589.0,589.0,589.0,456.0,456.0,456.0,456.0,637.0,637.0,637.0,259.0,259.0,259.0,259.0,575.0,575.0,575.0,687.0,687.0,360.0,360.0,360.0,360.0,736.0,736.0,736.0,736.0,548.0,548.0,548.0,524.0,524.0,524.0,524.0,344.0,344.0,344.0,428.0,428.0,582.0,687.0,428.0,528.2666666666667,479.3777777777778,498.77777777777777,328.0,428.0,556.0,656.0,687.0,736.0
0,372.0,259.0,344.0,550.0,518.0,518.0,518.0,518.0,372.0,372.0,372.0,656.0,656.0,656.0,656.0,520.0,520.0,520.0,582.0,582.0,582.0,541.0,541.0,589.0,456.0,456.0,456.0,456.0,637.0,637.0,637.0,259.0,259.0,259.0,259.0,575.0,575.0,575.0,687.0,687.0,687.0,508.0,508.0,360.0,736.0,736.0,736.0,736.0,548.0,548.0,548.0,524.0,524.0,524.0,524.0,344.0,344.0,344.0,428.0,428.0,428.0,568.0,568.0,541.0,508.0,568.0,534.4,491.22222222222223,492.9555555555556,328.0,428.0,556.0,656.0,687.0,736.0
0,372.0,259.0,344.0,518.0,372.0,372.0,372.0,656.0,656.0,656.0,656.0,520.0,520.0,520.0,582.0,582.0,582.0,541.0,541.0,541.0,541.0,718.0,718.0,456.0,637.0,637.0,637.0,259.0,259.0,259.0,259.0,575.0,575.0,575.0,687.0,687.0,687.0,508.0,508.0,508.0,508.0,677.0,677.0,736.0,548.0,548.0,548.0,524.0,524.0,524.0,524.0,344.0,344.0,344.0,428.0,428.0,428.0,568.0,568.0,568.0,568.0,681.0,681.0,718.0,677.0,681.0,553.0444444444445,493.1777777777778,509.0,346.0,428.0,556.0,718.0,687.0,736.0
0,494.0,259.0,344.0,656.0,656.0,656.0,656.0,520.0,520.0,520.0,582.0,582.0,582.0,541.0,541.0,541.0,541.0,718.0,718.0,718.0,718.0,494.0,494.0,259.0,259.0,259.0,259.0,575.0,575.0,575.0,687.0,687.0,687.0,508.0,508.0,508.0,508.0,677.0,677.0,677.0,677.0,501.0,501.0,524.0,524.0,524.0,524.0,344.0,344.0,344.0,428.0,428.0,428.0,568.0,568.0,568.0,568.0,681.0,681.0,681.0,681.0,612.0,612.0,494.0,501.0,612.0,558.1777777777778,503.7111111111111,540.8444444444444,346.0,428.0,392.0,718.0,687.0,681.0
0,293.0,259.0,344.0,656.0,520.0,520.0,520.0,582.0,582.0,582.0,541.0,541.0,541.0,541.0,718.0,718.0,718.0,494.0,494.0,494.0,494.0,293.0,293.0,259.0,575.0,575.0,575.0,687.0,687.0,687.0,508.0,508.0,508.0,508.0,677.0,677.0,677.0,501.0,501.0,501.0,501.0,653.0,653.0,524.0,344.0,344.0,344.0,428.0,428.0,428.0,568.0,568.0,568.0,568.0,681.0,681.0,681.0,612.0,612.0,612.0,612.0,641.0,641.0,293.0,653.0,641.0,554.3777777777777,516.0222222222222,544.6888888888889,425.0,428.0,392.0,718.0,687.0,681.0
0,293.0,501.0,428.0,582.0,582.0,541.0,541.0,541.0,541.0,718.0,718.0,718.0,718.0,494.0,494.0,494.0,494.0,293.0,293.0,293.0,293.0,490.0,490.0,687.0,687.0,508.0,508.0,508.0,508.0,677.0,677.0,677.0,677.0,501.0,501.0,501.0,501.0,653.0,653.0,653.0,653.0,573.0,573.0,428.0,428.0,568.0,568.0,568.0,568.0,681.0,681.0,681.0,681.0,612.0,612.0,612.0,612.0,641.0,641.0,641.0,641.0,460.0,460.0,490.0,573.0,460.0,539.1555555555556,527.9777777777778,552.0888888888888,425.0,428.0,392.0,718.0,687.0,681.0
0,293.0,129.0,460.0,541.0,541.0,718.0,718.0,718.0,718.0,494.0,494.0,494.0,494.0,293.0,293.0,293.0,293.0,490.0,490.0,490.0,490.0,586.0,586.0,508.0,508.0,677.0,677.0,677.0,677.0,501.0,501.0,501.0,501.0,653.0,653.0,653.0,653.0,573.0,573.0,573.0,573.0,129.0,129.0,568.0,568.0,681.0,681.0,681.0,681.0,612.0,612.0,612.0,612.0,641.0,641.0,641.0,641.0,460.0,460.0,460.0,460.0,498.0,498.0,586.0,129.0,498.0,533.9111111111112,520.6444444444444,543.6888888888889,425.0,558.0,392.0,718.0,677.0,681.0
0,293.0,129.0,460.0,718.0,718.0,718.0,494.0,494.0,494.0,494.0,293.0,293.0,293.0,293.0,490.0,490.0,490.0,490.0,586.0,586.0,586.0,489.0,489.0,677.0,677.0,677.0,501.0,501.0,501.0,501.0,653.0,653.0,653.0,653.0,573.0,573.0,573.0,573.0,129.0,129.0,129.0,456.0,456.0,681.0,681.0,681.0,612.0,612.0,612.0,612.0,641.0,641.0,641.0,641.0,460.0,460.0,460.0,460.0,498.0,498.0,498.0,500.0,500.0,489.0,456.0,500.0,525.5111111111111,517.1333333333333,542.7111111111111,425.0,558.0,392.0,718.0,677.0,681.0
0,293.0,129.0,460.0,494.0,494.0,494.0,293.0,293.0,293.0,293.0,490.0,490.0,490.0,490.0,586.0,586.0,586.0,489.0,489.0,489.0,489.0,414.0,414.0,501.0,501.0,501.0,653.0,653.0,653.0,653.0,573.0,573.0,573.0,573.0,129.0,129.0,129.0,456.0,456.0,456.0,456.0,316.0,316.0,612.0,612.0,612.0,641.0,641.0,641.0,641.0,460.0,460.0,460.0,460.0,498.0,498.0,498.0,500.0,500.0,500.0,500.0,578.0,578.0,414.0,316.0,578.0,517.4666666666667,502.0444444444444,550.2666666666667,425.0,558.0,392.0,586.0,653.0,641.0
0,293.0,129.0,460.0,293.0,293.0,293.0,490.0,490.0,490.0,490.0,586.0,586.0,586.0,489.0,489.0,489.0,489.0,414.0,414.0,414.0,414.0,589.0,589.0,653.0,653.0,653.0,573.0,573.0,573.0,573.0,129.0,129.0,129.0,456.0,456.0,456.0,456.0,316.0,316.0,316.0,316.0,478.0,478.0,641.0,641.0,641.0,460.0,460.0,460.0,460.0,498.0,498.0,498.0,500.0,500.0,500.0,500.0,578.0,578.0,578.0,578.0,611.0,611.0,589.0,478.0,611.0,519.2444444444444,492.77777777777777,541.8666666666667,425.0,558.0,337.0,589.0,653.0,641.0
0,414.0,129.0,460.0,490.0,490.0,490.0,586.0,586.0,586.0,489.0,489.0,489.0,489.0,414.0,414.0,414.0,414.0,589.0,589.0,589.0,589.0,511.0,511.0,573.0,573.0,573.0,129.0,129.0,129.0,456.0,456.0,456.0,456.0,316.0,316.0,316.0,316.0,478.0,478.0,478.0,478.0,432.0,432.0,460.0,460.0,460.0,498.0,498.0,498.0,500.0,500.0,500.0,500.0,578.0,578.0,578.0,578.0,611.0,611.0,611.0,611.0,774.0,774.0,511.0,432.0,774.0,522.4444444444445,493.4,555.7777777777778,425.0,558.0,430.0,589.0,573.0,774.0
0,414.0,129.0,498.0,586.0,586.0,586.0,489.0,489.0,489.0,489.0,414.0,414.0,414.0,414.0,589.0,589.0,589.0,589.0,511.0,511.0,511.0,570.0,570.0,129.0,129.0,129.0,456.0,456.0,456.0,456.0,316.0,316.0,316.0,316.0,478.0,478.0,478.0,478.0,432.0,432.0,432.0,634.0,634.0,498.0,498.0,498.0,500.0,500.0,500.0,500.0,578.0,578.0,578.0,578.0,611.0,611.0,611.0,611.0,774.0,774.0,774.0,581.0,581.0,570.0,634.0,581.0,518.4222222222222,506.8888888888889,567.8666666666667,425.0,558.0,430.0,589.0,634.0,774.0
0,314.0,316.0,500.0,489.0,489.0,489.0,414.0,414.0,414.0,414.0,589.0,589.0,589.0,589.0,511.0,511.0,511.0,570.0,570.0,570.0,570.0,570.0,314.0,456.0,456.0,456.0,316.0,316.0,316.0,316.0,478.0,478.0,478.0,478.0,432.0,432.0,432.0,634.0,634.0,634.0,634.0,634.0,576.0,500.0,500.0,500.0,578.0,578.0,578.0,578.0,611.0,611.0,611.0,611.0,774.0,774.0,774.0,581.0,581.0,581.0,581.0,581.0,709.0,314.0,576.0,709.0,514.4222222222222,505.8666666666667,588.0444444444445,425.0,558.0,346.0,589.0,634.0,774.0
0,314.0,316.0,578.0,414.0,414.0,589.0,589.0,589.0,589.0,511.0,511.0,511.0,570.0,570.0,570.0,570.0,570.0,314.0,314.0,314.0,314.0,555.0,555.0,316.0,316.0,478.0,478.0,478.0,478.0,432.0,432.0,432.0,634.0,634.0,634.0,634.0,634.0,576.0,576.0,576.0,576.0,594.0,594.0,578.0,578.0,611.0,611.0,611.0,611.0,774.0,774.0,774.0,581.0,581.0,581.0,581.0,581.0,709.0,709.0,709.0,709.0,690.0,690.0,555.0,594.0,690.0,499.0,510.24444444444447,605.9777777777778,425.0,548.0,314.0,589.0,634.0,774.0
0,314.0,432.0,581.0,589.0,511.0,511.0,511.0,570.0,570.0,570.0,570.0,570.0,314.0,314.0,314.0,314.0,555.0,555.0,555.0,555.0,555.0,337.0,337.0,478.0,432.0,432.0,432.0,634.0,634.0,634.0,634.0,634.0,576.0,576.0,576.0,576.0,594.0,594.0,594.0,594.0,594.0,534.0,534.0,611.0,774.0,774.0,774.0,581.0,581.0,581.0,581.0,581.0,709.0,709.0,709.0,709.0,690.0,690.0,690.0,690.0,690.0,644.0,644.0,337.0,534.0,644.0,476.1777777777778,502.26666666666665,606.4666666666667,296.0,524.0,314.0,589.0,634.0,774.0
0,314.0,306.0,581.0,570.0,570.0,570.0,570.0,570.0,314.0,314.0,314.0,314.0,555.0,555.0,555.0,555.0,555.0,337.0,337.0,337.0,337.0,582.0,582.0,634.0,634.0,634.0,634.0,634.0,576.0,576.0,576.0,576.0,594.0,594.0,594.0,594.0,594.0,534.0,534.0,534.0,534.0,306.0,306.0,581.0,581.0,581.0,581.0,581.0,709.0,709.0,709.0,709.0,690.0,690.0,690.0,690.0,690.0,644.0,644.0,644.0,644.0,613.0,613.0,582.0,306.0,613.0,477.5777777777778,491.68888888888887,607.2888888888889,296.0,524.0,314.0,582.0,634.0,709.0
0,314.0,306.0,419.0,570.0,570.0,314.0,314.0,314.0,314.0,555.0,555.0,555.0,555.0,555.0,337.0,337.0,337.0,337.0,582.0,582.0,582.0,533.0,533.0,634.0,634.0,576.0,576.0,576.0,576.0,594.0,594.0,594.0,594.0,594.0,534.0,534.0,534.0,534.0,306.0,306.0,306.0,393.0,393.0,581.0,581.0,709.0,709.0,709.0,709.0,690.0,690.0,690.0,690.0,690.0,644.0,644.0,644.0,644.0,613.0,613.0,613.0,419.0,419.0,533.0,393.0,419.0,494.6666666666667,472.4222222222222,596.8,275.0,505.0,355.0,582.0,634.0,709.0
0,314.0,306.0,419.0,314.0,314.0,555.0,555.0,555.0,555.0,555.0,337.0,337.0,337.0,337.0,582.0,582.0,582.0,533.0,533.0,533.0,533.0,477.0,477.0,576.0,576.0,594.0,594.0,594.0,594.0,594.0,534.0,534.0,534.0,534.0,306.0,306.0,306.0,393.0,393.0,393.0,393.0,440.0,440.0,709.0,709.0,690.0,690.0,690.0,690.0,690.0,644.0,644.0,644.0,644.0,613.0,613.0,613.0,419.0,419.0,419.0,419.0,563.0,563.0,477.0,440.0,563.0,496.0,458.5111111111111,599.5555555555555,275.0,505.0,355.0,582.0,594.0,709.0
0,337.0,306.0,419.0,555.0,555.0,555.0,337.0,337.0,337.0,337.0,582.0,582.0,582.0,533.0,533.0,533.0,533.0,477.0,477.0,477.0,477.0,408.0,408.0,594.0,594.0,594.0,534.0,534.0,534.0,534.0,306.0,306.0,306.0,393.0,393.0,393.0,393.0,440.0,440.0,440.0,440.0,653.0,653.0,690.0,690.0,690.0,644.0,644.0,644.0,644.0,613.0,613.0,613.0,419.0,419.0,419.0,419.0,563.0,563.0,563.0,563.0,522.0,522.0,408.0,653.0,522.0,485.4,488.35555555555555,603.4666666666667,275.0,347.0,355.0,582.0,653.0,690.0
0,337.0,306.0,419.0,337.0,337.0,337.0,337.0,582.0,582.0,582.0,533.0,533.0,533.0,533.0,477.0,477.0,477.0,477.0,408.0,408.0,408.0,408.0,590.0,534.0,534.0,534.0,534.0,306.0,306.0,306.0,393.0,393.0,393.0,393.0,440.0,440.0,440.0,440.0,653.0,653.0,653.0,653.0,342.0,644.0,644.0,644.0,644.0,613.0,613.0,613.0,419.0,419.0,419.0,419.0,563.0,563.0,563.0,563.0,522.0,522.0,522.0,522.0,450.0,590.0,342.0,450.0,484.0444444444444,494.5777777777778,603.3333333333334,276.0,347.0,355.0,590.0,653.0,644.0
0,408.0,110.0,419.0,582.0,582.0,582.0,533.0,533.0,533.0,533.0,477.0,477.0,477.0,477.0,408.0,408.0,408.0,408.0,590.0,590.0,590.0,590.0,623.0,306.0,306.0,306.0,393.0,393.0,393.0,393.0,440.0,440.0,440.0,440.0,653.0,653.0,653.0,653.0,342.0,342.0,342.0,342.0,110.0,613.0,613.0,613.0,419.0,419.0,419.0,419.0,563.0,563.0,563.0,563.0,522.0,522.0,522.0,522.0,450.0,450.0,450.0,450.0,621.0,623.0,110.0,621.0,500.4222222222222,491.73333333333335,595.7555555555556,309.0,543.0,355.0,623.0,653.0,621.0
0,408.0,110.0,419.0,533.0,533.0,533.0,477.0,477.0,477.0,477.0,408.0,408.0,408.0,408.0,590.0,590.0,590.0,590.0,623.0,623.0,623.0,549.0,549.0,393.0,393.0,393.0,440.0,440.0,440.0,440.0,653.0,653.0,653.0,653.0,342.0,342.0,342.0,342.0,110.0,110.0,110.0,715.0,715.0,419.0,419.0,419.0,563.0,563.0,563.0,563.0,522.0,522.0,522.0,522.0,450.0,450.0,450.0,450.0,621.0,621.0,621.0,461.0,461.0,549.0,715.0,461.0,500.15555555555557,485.9111111111111,589.5333333333333,309.0,605.0,355.0,623.0,715.0,621.0
0,408.0,110.0,450.0,477.0,477.0,477.0,408.0,408.0,408.0,408.0,590.0,590.0,590.0,590.0,623.0,623.0,623.0,549.0,549.0,549.0,549.0,531.0,531.0,440.0,440.0,440.0,653.0,653.0,653.0,653.0,342.0,342.0,342.0,342.0,110.0,110.0,110.0,715.0,715.0,715.0,715.0,124.0,124.0,563.0,563.0,563.0,522.0,522.0,522.0,522.0,450.0,450.0,450.0,450.0,621.0,621.0,621.0,461.0,461.0,461.0,461.0,747.0,747.0,531.0,124.0,747.0,501.4222222222222,480.31111111111113,578.7111111111111,309.0,605.0,328.0,623.0,715.0,747.0
0,408.0,110.0,450.0,408.0,408.0,408.0,590.0,590.0,590.0,590.0,623.0,623.0,623.0,549.0,549.0,549.0,549.0,531.0,531.0,531.0,531.0,483.0,483.0,653.0,653.0,653.0,342.0,342.0,342.0,342.0,110.0,110.0,110.0,715.0,715.0,715.0,715.0,124.0,124.0,124.0,124.0,497.0,497.0,522.0,522.0,522.0,450.0,450.0,450.0,450.0,621.0,621.0,621.0,461.0,461.0,461.0,461.0,747.0,747.0,747.0,747.0,628.0,628.0,483.0,497.0,628.0,495.8222222222222,451.55555555555554,588.1777777777778,309.0,605.0,328.0,623.0,715.0,747.0
0,483.0,110.0,450.0,590.0,590.0,590.0,623.0,623.0,623.0,549.0,549.0,549.0,549.0,531.0,531.0,531.0,531.0,483.0,483.0,483.0,483.0,626.0,626.0,342.0,342.0,342.0,110.0,110.0,110.0,715.0,715.0,715.0,715.0,124.0,124.0,124.0,124.0,497.0,497.0,497.0,497.0,223.0,223.0,450.0,450.0,450.0,621.0,621.0,621.0,461.0,461.0,461.0,461.0,747.0,747.0,747.0,747.0,628.0,628.0,628.0,628.0,590.0,590.0,626.0,223.0,590.0,517.2,432.35555555555555,579.2888888888889,289.0,605.0,328.0,626.0,715.0,747.0
0,483.0,110.0,461.0,623.0,623.0,549.0,549.0,549.0,549.0,531.0,531.0,531.0,531.0,483.0,483.0,483.0,483.0,626.0,626.0,626.0,626.0,537.0,537.0,110.0,110.0,715.0,715.0,715.0,715.0,124.0,124.0,124.0,124.0,497.0,497.0,497.0,497.0,223.0,223.0,223.0,223.0,535.0,535.0,621.0,621.0,461.0,461.0,461.0,461.0,747.0,747.0,747.0,747.0,628.0,628.0,628.0,628.0,590.0,590.0,590.0,590.0,507.0,507.0,537.0,535.0,507.0,519.5555555555555,413.24444444444447,566.7111111111111,289.0,605.0,328.0,626.0,715.0,747.0
0,430.0,124.0,398.0,549.0,549.0,531.0,531.0,531.0,531.0,483.0,483.0,483.0,483.0,626.0,626.0,626.0,626.0,537.0,537.0,537.0,537.0,430.0,430.0,715.0,715.0,124.0,124.0,124.0,124.0,497.0,497.0,497.0,497.0,223.0,223.0,223.0,223.0,535.0,535.0,535.0,535.0,329.0,329.0,461.0,461.0,747.0,747.0,747.0,747.0,628.0,628.0,628.0,628.0,590.0,590.0,590.0,590.0,507.0,507.0,507.0,507.0,398.0,398.0,430.0,329.0,398.0,527.7333333333333,402.84444444444443,548.6666666666666,289.0,605.0,349.0,626.0,715.0,747.0
0,423.0,124.0,398.0,531.0,483.0,483.0,483.0,483.0,626.0,626.0,626.0,626.0,537.0,537.0,537.0,537.0,430.0,430.0,430.0,430.0,430.0,423.0,423.0,124.0,497.0,497.0,497.0,497.0,223.0,223.0,223.0,223.0,535.0,535.0,535.0,535.0,329.0,329.0,329.0,329.0,329.0,886.0,886.0,747.0,628.0,628.0,628.0,628.0,590.0,590.0,590.0,590.0,507.0,507.0,507.0,507.0,398.0,398.0,398.0,398.0,398.0,475.0,475.0,423.0,886.0,475.0,517.0666666666667,423.15555555555557,531.8222222222222,218.0,776.0,349.0,626.0,886.0,747.0
0,367.0,223.0,398.0,483.0,483.0,626.0,626.0,626.0,626.0,537.0,537.0,537.0,537.0,430.0,430.0,430.0,430.0,430.0,423.0,423.0,423.0,367.0,367.0,497.0,497.0,223.0,223.0,223.0,223.0,535.0,535.0,535.0,535.0,329.0,329.0,329.0,329.0,329.0,886.0,886.0,886.0,823.0,823.0,628.0,628.0,590.0,590.0,590.0,590.0,507.0,507.0,507.0,507.0,398.0,398.0,398.0,398.0,398.0,475.0,475.0,475.0,636.0,636.0,367.0,823.0,636.0,507.24444444444447,453.22222222222223,542.7111111111111,259.0,776.0,349.0,626.0,886.0,636.0
0,367.0,223.0,398.0,626.0,626.0,626.0,537.0,537.0,537.0,537.0,430.0,430.0,430.0,430.0,430.0,423.0,423.0,423.0,367.0,367.0,367.0,662.0,662.0,223.0,223.0,223.0,535.0,535.0,535.0,535.0,329.0,329.0,329.0,329.0,329.0,886.0,886.0,886.0,823.0,823.0,823.0,706.0,706.0,590.0,590.0,590.0,507.0,507.0,507.0,507.0,398.0,398.0,398.0,398.0,398.0,475.0,475.0,475.0,636.0,636.0,636.0,539.0,539.0,662.0,706.0,539.0,513.0222222222222,473.55555555555554,543.2666666666667,295.0,776.0,349.0,662.0,886.0,636.0
0,367.0,329.0,398.0,537.0,537.0,537.0,537.0,430.0,430.0,430.0,430.0,430.0,423.0,423.0,423.0,367.0,367.0,367.0,662.0,662.0,662.0,492.0,492.0,535.0,535.0,535.0,535.0,329.0,329.0,329.0,329.0,329.0,886.0,886.0,886.0,823.0,823.0,823.0,706.0,706.0,706.0,343.0,343.0,507.0,507.0,507.0,507.0,398.0,398.0,398.0,398.0,398.0,475.0,475.0,475.0,636.0,636.0,636.0,539.0,539.0,539.0,643.0,643.0,492.0,343.0,643.0,520.8666666666667,465.68888888888887,548.1111111111111,295.0,776.0,349.0,662.0,886.0,643.0
0,367.0,329.0,221.0,430.0,430.0,430.0,430.0,430.0,423.0,423.0,423.0,367.0,367.0,367.0,662.0,662.0,662.0,492.0,492.0,492.0,492.0,450.0,450.0,329.0,329.0,329.0,329.0,329.0,886.0,886.0,886.0,823.0,823.0,823.0,706.0,706.0,706.0,343.0,343.0,343.0,343.0,868.0,868.0,398.0,398.0,398.0,398.0,398.0,475.0,475.0,475.0,636.0,636.0,636.0,539.0,539.0,539.0,643.0,643.0,643.0,643.0,221.0,221.0,450.0,868.0,221.0,518.3777777777777,475.2888888888889,543.3111111111111,295.0,776.0,526.0,662.0,886.0,643.0
0,354.0,329.0,221.0,430.0,423.0,423.0,423.0,367.0,367.0,367.0,662.0,662.0,662.0,492.0,492.0,492.0,492.0,450.0,450.0,450.0,450.0,354.0,354.0,329.0,886.0,886.0,886.0,823.0,823.0,823.0,706.0,706.0,706.0,343.0,343.0,343.0,343.0,868.0,868.0,868.0,868.0,649.0,649.0,398.0,475.0,475.0,475.0,636.0,636.0,636.0,539.0,539.0,539.0,643.0,643.0,643.0,643.0,221.0,221.0,221.0,221.0,480.0,480.0,354.0,649.0,480.0,500.2,522.6222222222223,526.8666666666667,308.0,776.0,526.0,662.0,886.0,643.0
0,354.0,343.0,221.0,367.0,367.0,367.0,662.0,662.0,662.0,492.0,492.0,492.0,492.0,450.0,450.0,450.0,450.0,354.0,354.0,354.0,354.0,601.0,601.0,823.0,823.0,823.0,706.0,706.0,706.0,343.0,343.0,343.0,343.0,868.0,868.0,868.0,868.0,649.0,649.0,649.0,649.0,461.0,461.0,636.0,636.0,636.0,539.0,539.0,539.0,643.0,643.0,643.0,643.0,221.0,221.0,221.0,221.0,480.0,480.0,480.0,480.0,393.0,393.0,601.0,461.0,393.0,492.2,521.8444444444444,521.1333333333333,308.0,762.0,526.0,662.0,868.0,643.0
0,354.0,343.0,221.0,662.0,662.0,662.0,492.0,492.0,492.0,492.0,450.0,450.0,450.0,450.0,354.0,354.0,354.0,354.0,601.0,601.0,601.0,601.0,511.0,706.0,706.0,706.0,343.0,343.0,343.0,343.0,868.0,868.0,868.0,868.0,649.0,649.0,649.0,649.0,461.0,461.0,461.0,461.0,643.0,539.0,539.0,539.0,643.0,643.0,643.0,643.0,221.0,221.0,221.0,221.0,480.0,480.0,480.0,480.0,393.0,393.0,393.0,393.0,503.0,511.0,643.0,503.0,494.46666666666664,535.2222222222222,506.3333333333333,308.0,762.0,526.0,662.0,868.0,643.0
0,354.0,343.0,221.0,492.0,492.0,492.0,450.0,450.0,450.0,450.0,354.0,354.0,354.0,354.0,601.0,601.0,601.0,601.0,511.0,511.0,511.0,511.0,542.0,343.0,343.0,343.0,868.0,868.0,868.0,868.0,649.0,649.0,649.0,649.0,461.0,461.0,461.0,461.0,643.0,643.0,643.0,643.0,572.0,643.0,643.0,643.0,221.0,221.0,221.0,221.0,480.0,480.0,480.0,480.0,393.0,393.0,393.0,393.0,503.0,503.0,503.0,503.0,535.0,542.0,572.0,535.0,495.5111111111111,563.2,490.64444444444445,308.0,663.0,422.0,601.0,868.0,643.0
0,354.0,461.0,221.0,450.0,450.0,354.0,354.0,354.0,354.0,601.0,601.0,601.0,601.0,511.0,511.0,511.0,511.0,542.0,542.0,542.0,542.0,542.0,542.0,868.0,868.0,649.0,649.0,649.0,649.0,461.0,461.0,461.0,461.0,643.0,643.0,643.0,643.0,572.0,572.0,572.0,572.0,572.0,572.0,221.0,221.0,480.0,480.0,480.0,480.0,393.0,393.0,393.0,393.0,503.0,503.0,503.0,503.0,535.0,535.0,535.0,535.0,535.0,535.0,542.0,572.0,535.0,492.53333333333336,589.8,482.84444444444443,308.0,663.0,422.0,601.0,868.0,535.0
0,354.0,461.0,393.0,354.0,354.0,601.0,601.0,601.0,601.0,511.0,511.0,511.0,511.0,542.0,542.0,542.0,542.0,542.0,542.0,508.0,508.0,508.0,508.0,649.0,649.0,461.0,461.0,461.0,461.0,643.0,643.0,643.0,643.0,572.0,572.0,572.0,572.0,572.0,572.0,639.0,639.0,639.0,639.0,480.0,480.0,393.0,393.0,393.0,393.0,503.0,503.0,503.0,503.0,535.0,535.0,535.0,535.0,535.0,535.0,396.0,396.0,396.0,396.0,508.0,639.0,396.0,487.97777777777776,605.9777777777778,471.1333333333333,308.0,557.0,422.0,601.0,649.0,535.0
0,477.0,461.0,393.0,601.0,511.0,511.0,511.0,511.0,542.0,542.0,542.0,542.0,542.0,542.0,508.0,508.0,508.0,508.0,477.0,477.0,477.0,691.0,691.0,461.0,643.0,643.0,643.0,643.0,572.0,572.0,572.0,572.0,572.0,572.0,639.0,639.0,639.0,639.0,671.0,671.0,671.0,675.0,675.0,393.0,503.0,503.0,503.0,503.0,535.0,535.0,535.0,535.0,535.0,535.0,396.0,396.0,396.0,396.0,483.0,483.0,483.0,413.0,413.0,691.0,675.0,413.0,500.3333333333333,639.5777777777778,475.0444444444444,337.0,557.0,422.0,691.0,675.0,535.0
0,411.0,411.0,396.0,511.0,542.0,542.0,542.0,542.0,542.0,542.0,508.0,508.0,508.0,508.0,477.0,477.0,477.0,691.0,691.0,691.0,691.0,411.0,411.0,643.0,572.0,572.0,572.0,572.0,572.0,572.0,639.0,639.0,639.0,639.0,671.0,671.0,671.0,675.0,675.0,675.0,675.0,411.0,411.0,503.0,535.0,535.0,535.0,535.0,535.0,535.0,396.0,396.0,396.0,396.0,483.0,483.0,483.0,413.0,413.0,413.0,413.0,556.0,556.0,411.0,411.0,556.0,511.55555555555554,621.4666666666667,477.6,337.0,525.0,422.0,691.0,675.0,556.0
0,411.0,411.0,396.0,542.0,542.0,542.0,508.0,508.0,508.0,508.0,477.0,477.0,477.0,691.0,691.0,691.0,691.0,411.0,411.0,411.0,411.0,522.0,522.0,572.0,572.0,572.0,639.0,639.0,639.0,639.0,671.0,671.0,671.0,675.0,675.0,675.0,675.0,411.0,411.0,411.0,411.0,683.0,683.0,535.0,535.0,535.0,396.0,396.0,396.0,396.0,483.0,483.0,483.0,413.0,413.0,413.0,413.0,556.0,556.0,556.0,556.0,462.0,462.0,522.0,683.0,462.0,513.8444444444444,599.5333333333333,468.46666666666664,337.0,525.0,422.0,691.0,683.0,556.0
0,411.0,411.0,396.0,508.0,508.0,508.0,477.0,477.0,477.0,691.0,691.0,691.0,691.0,411.0,411.0,411.0,411.0,522.0,522.0,522.0,522.0,522.0,568.0,639.0,639.0,639.0,671.0,671.0,671.0,675.0,675.0,675.0,675.0,411.0,411.0,411.0,411.0,683.0,683.0,683.0,683.0,683.0,540.0,396.0,396.0,396.0,483.0,483.0,483.0,413.0,413.0,413.0,413.0,556.0,556.0,556.0,556.0,462.0,462.0,462.0,462.0,462.0,268.0,522.0,683.0,462.0,508.9555555555556,613.6222222222223,457.0,337.0,525.0,422.0,691.0,683.0,556.0
0,268.0,411.0,268.0,477.0,691.0,691.0,691.0,691.0,411.0,411.0,411.0,411.0,522.0,522.0,522.0,522.0,522.0,522.0,568.0,568.0,568.0,568.0,268.0,671.0,675.0,675.0,675.0,675.0,411.0,411.0,411.0,411.0,683.0,683.0,683.0,683.0,683.0,683.0,540.0,540.0,540.0,540.0,712.0,483.0,413.0,413.0,413.0,413.0,556.0,556.0,556.0,556.0,462.0,462.0,462.0,462.0,462.0,462.0,268.0,268.0,268.0,268.0,445.0,268.0,712.0,445.0,513.5333333333333,604.3333333333334,447.4,423.0,457.0,335.0,691.0,712.0,556.0
0,268.0,411.0,268.0,691.0,411.0,411.0,411.0,411.0,522.0,522.0,522.0,522.0,522.0,522.0,568.0,568.0,568.0,568.0,268.0,268.0,268.0,388.0,388.0,675.0,411.0,411.0,411.0,411.0,683.0,683.0,683.0,683.0,683.0,683.0,540.0,540.0,540.0,540.0,712.0,712.0,712.0,835.0,835.0,413.0,556.0,556.0,556.0,556.0,462.0,462.0,462.0,462.0,462.0,462.0,268.0,268.0,268.0,268.0,445.0,445.0,445.0,490.0,490.0,388.0,835.0,490.0,509.0888888888889,610.5333333333333,452.0444444444444,423.0,424.0,288.0,691.0,835.0,556.0
0,268.0,411.0,268.0,411.0,522.0,522.0,522.0,522.0,522.0,522.0,568.0,568.0,568.0,568.0,268.0,268.0,268.0,388.0,388.0,388.0,388.0,485.0,485.0,411.0,683.0,683.0,683.0,683.0,683.0,683.0,540.0,540.0,540.0,540.0,712.0,712.0,712.0,835.0,835.0,835.0,835.0,475.0,475.0,556.0,462.0,462.0,462.0,462.0,462.0,462.0,268.0,268.0,268.0,268.0,445.0,445.0,445.0,490.0,490.0,490.0,490.0,688.0,688.0,485.0,475.0,688.0,499.9555555555556,623.6,467.53333333333336,423.0,424.0,420.0,568.0,835.0,688.0
0,268.0,475.0,268.0,522.0,522.0,522.0,568.0,568.0,568.0,568.0,268.0,268.0,268.0,388.0,388.0,388.0,388.0,485.0,485.0,485.0,485.0,634.0,634.0,683.0,683.0,683.0,540.0,540.0,540.0,540.0,712.0,712.0,712.0,835.0,835.0,835.0,835.0,475.0,475.0,475.0,475.0,703.0,703.0,462.0,462.0,462.0,268.0,268.0,268.0,268.0,445.0,445.0,445.0,490.0,490.0,490.0,490.0,688.0,688.0,688.0,688.0,529.0,529.0,634.0,703.0,529.0,502.26666666666665,622.8444444444444,479.35555555555555,423.0,424.0,420.0,634.0,835.0,688.0
0,268.0,459.0,268.0,568.0,568.0,268.0,268.0,268.0,388.0,388.0,388.0,388.0,485.0,485.0,485.0,485.0,634.0,634.0,634.0,634.0,634.0,634.0,386.0,540.0,540.0,712.0,712.0,712.0,835.0,835.0,835.0,835.0,475.0,475.0,475.0,475.0,703.0,703.0,703.0,703.0,703.0,703.0,459.0,268.0,268.0,445.0,445.0,445.0,490.0,490.0,490.0,490.0,688.0,688.0,688.0,688.0,529.0,529.0,529.0,529.0,529.0,529.0,727.0,386.0,459.0,727.0,507.6666666666667,630.4,483.8,423.0,424.0,459.0,634.0,835.0,727.0
0,268.0,284.0,445.0,268.0,388.0,388.0,388.0,388.0,485.0,485.0,485.0,485.0,634.0,634.0,634.0,634.0,634.0,634.0,386.0,386.0,386.0,562.0,562.0,712.0,835.0,835.0,835.0,835.0,475.0,475.0,475.0,475.0,703.0,703.0,703.0,703.0,703.0,703.0,459.0,459.0,459.0,284.0,284.0,445.0,490.0,490.0,490.0,490.0,688.0,688.0,688.0,688.0,529.0,529.0,529.0,529.0,529.0,529.0,727.0,727.0,727.0,560.0,560.0,562.0,284.0,560.0,503.1333333333333,609.6,499.6222222222222,423.0,551.0,459.0,634.0,835.0,727.0
0,386.0,284.0,490.0,388.0,485.0,485.0,485.0,485.0,634.0,634.0,634.0,634.0,634.0,634.0,386.0,386.0,386.0,562.0,562.0,562.0,562.0,591.0,591.0,835.0,475.0,475.0,475.0,475.0,703.0,703.0,703.0,703.0,703.0,703.0,459.0,459.0,459.0,284.0,284.0,284.0,284.0,735.0,735.0,490.0,688.0,688.0,688.0,688.0,529.0,529.0,529.0,529.0,529.0,529.0,727.0,727.0,727.0,560.0,560.0,560.0,560.0,623.0,623.0,591.0,735.0,623.0,510.6,596.6666666666666,513.1333333333333,423.0,551.0,459.0,634.0,835.0,727.0
0,386.0,284.0,529.0,634.0,634.0,634.0,634.0,634.0,634.0,386.0,386.0,386.0,562.0,562.0,562.0,562.0,591.0,591.0,591.0,591.0,591.0,429.0,429.0,703.0,703.0,703.0,703.0,703.0,703.0,459.0,459.0,459.0,284.0,284.0,284.0,284.0,735.0,735.0,735.0,735.0,735.0,566.0,566.0,529.0,529.0,529.0,529.0,529.0,529.0,727.0,727.0,727.0,560.0,560.0,560.0,560.0,623.0,623.0,623.0,623.0,623.0,615.0,615.0,429.0,566.0,615.0,497.0444444444444,595.9111111111112,534.5555555555555,366.0,551.0,459.0,634.0,735.0,727.0
0,386.0,284.0,529.0,634.0,634.0,386.0,386.0,386.0,562.0,562.0,562.0,562.0,591.0,591.0,591.0,591.0,591.0,429.0,429.0,429.0,429.0,439.0,439.0,703.0,703.0,459.0,459.0,459.0,284.0,284.0,284.0,284.0,735.0,735.0,735.0,735.0,735.0,566.0,566.0,566.0,566.0,614.0,614.0,529.0,529.0,727.0,727.0,727.0,560.0,560.0,560.0,560.0,623.0,623.0,623.0,623.0,623.0,615.0,615.0,615.0,615.0,557.0,557.0,439.0,614.0,557.0,499.0888888888889,611.8222222222222,537.2222222222222,366.0,551.0,459.0,634.0,735.0,727.0
0,386.0,284.0,557.0,386.0,562.0,562.0,562.0,562.0,591.0,591.0,591.0,591.0,591.0,429.0,429.0,429.0,429.0,439.0,439.0,439.0,439.0,580.0,580.0,459.0,284.0,284.0,284.0,284.0,735.0,735.0,735.0,735.0,735.0,566.0,566.0,566.0,566.0,614.0,614.0,614.0,614.0,499.0,499.0,727.0,560.0,560.0,560.0,560.0,623.0,623.0,623.0,623.0,623.0,615.0,615.0,615.0,615.0,557.0,557.0,557.0,557.0,570.0,570.0,580.0,499.0,570.0,497.97777777777776,600.5777777777778,546.2444444444444,366.0,551.0,459.0,591.0,735.0,727.0
0,429.0,284.0,463.0,562.0,591.0,591.0,591.0,591.0,591.0,429.0,429.0,429.0,429.0,439.0,439.0,439.0,439.0,580.0,580.0,580.0,580.0,502.0,502.0,284.0,735.0,735.0,735.0,735.0,735.0,566.0,566.0,566.0,566.0,614.0,614.0,614.0,614.0,499.0,499.0,499.0,499.0,497.0,497.0,560.0,623.0,623.0,623.0,623.0,623.0,615.0,615.0,615.0,615.0,557.0,557.0,557.0,557.0,570.0,570.0,570.0,570.0,463.0,463.0,502.0,497.0,463.0,497.6222222222222,590.4888888888889,559.7111111111111,366.0,551.0,459.0,591.0,735.0,623.0
0,429.0,497.0,463.0,591.0,591.0,591.0,429.0,429.0,429.0,429.0,439.0,439.0,439.0,439.0,580.0,580.0,580.0,580.0,502.0,502.0,502.0,502.0,490.0,735.0,735.0,735.0,566.0,566.0,566.0,566.0,614.0,614.0,614.0,614.0,499.0,499.0,499.0,499.0,497.0,497.0,497.0,497.0,635.0,623.0,623.0,623.0,615.0,615.0,615.0,615.0,557.0,557.0,557.0,557.0,570.0,570.0,570.0,570.0,463.0,463.0,463.0,463.0,610.0,490.0,635.0,610.0,499.6222222222222,586.8666666666667,572.0444444444445,366.0,551.0,282.0,591.0,735.0,623.0
0,377.0,497.0,463.0,429.0,429.0,439.0,439.0,439.0,439.0,580.0,580.0,580.0,580.0,502.0,502.0,502.0,502.0,490.0,490.0,490.0,490.0,377.0,377.0,566.0,566.0,614.0,614.0,614.0,614.0,499.0,499.0,499.0,499.0,497.0,497.0,497.0,497.0,635.0,635.0,635.0,635.0,597.0,597.0,615.0,615.0,557.0,557.0,557.0,557.0,570.0,570.0,570.0,570.0,463.0,463.0,463.0,463.0,610.0,610.0,610.0,610.0,534.0,534.0,377.0,597.0,534.0,511.26666666666665,568.4222222222222,584.0,257.0,551.0,264.0,580.0,635.0,615.0
0,377.0,497.0,463.0,439.0,439.0,580.0,580.0,580.0,580.0,502.0,502.0,502.0,502.0,490.0,490.0,490.0,490.0,377.0,377.0,377.0,377.0,469.0,469.0,614.0,614.0,499.0,499.0,499.0,499.0,497.0,497.0,497.0,497.0,635.0,635.0,635.0,635.0,597.0,597.0,597.0,597.0,600.0,600.0,557.0,557.0,570.0,570.0,570.0,570.0,463.0,463.0,463.0,463.0,610.0,610.0,610.0,610.0,534.0,534.0,534.0,534.0,505.0,505.0,469.0,600.0,505.0,507.9111111111111,571.4,573.4222222222222,257.0,451.0,264.0,580.0,635.0,610.0
0,377.0,497.0,463.0,580.0,580.0,502.0,502.0,502.0,502.0,490.0,490.0,490.0,490.0,377.0,377.0,377.0,377.0,469.0,469.0,469.0,469.0,481.0,481.0,499.0,499.0,497.0,497.0,497.0,497.0,635.0,635.0,635.0,635.0,597.0,597.0,597.0,597.0,600.0,600.0,600.0,600.0,644.0,644.0,570.0,570.0,463.0,463.0,463.0,463.0,610.0,610.0,610.0,610.0,534.0,534.0,534.0,534.0,505.0,505.0,505.0,505.0,526.0,526.0,481.0,644.0,526.0,497.0888888888889,569.2666666666667,568.6888888888889,257.0,451.0,264.0,580.0,644.0,610.0
0,377.0,454.0,463.0,502.0,502.0,490.0,490.0,490.0,490.0,377.0,377.0,377.0,377.0,469.0,469.0,469.0,469.0,481.0,481.0,481.0,481.0,415.0,415.0,497.0,497.0,635.0,635.0,635.0,635.0,597.0,597.0,597.0,597.0,600.0,600.0,600.0,600.0,644.0,644.0,644.0,644.0,454.0,454.0,463.0,463.0,610.0,610.0,610.0,610.0,534.0,534.0,534.0,534.0,505.0,505.0,505.0,505.0,526.0,526.0,526.0,526.0,548.0,548.0,415.0,454.0,548.0,486.06666666666666,561.0,565.0,214.0,451.0,264.0,502.0,644.0,610.0
0,377.0,454.0,448.0,490.0,490.0,377.0,377.0,377.0,377.0,469.0,469.0,469.0,469.0,481.0,481.0,481.0,481.0,415.0,415.0,415.0,415.0,466.0,466.0,635.0,635.0,597.0,597.0,597.0,597.0,600.0,600.0,600.0,600.0,644.0,644.0,644.0,644.0,454.0,454.0,454.0,454.0,541.0,541.0,610.0,610.0,534.0,534.0,534.0,534.0,505.0,505.0,505.0,505.0,526.0,526.0,526.0,526.0,548.0,548.0,548.0,548.0,448.0,448.0,466.0,541.0,448.0,483.0888888888889,572.2,552.0666666666667,214.0,451.0,175.0,490.0,644.0,610.0
0,377.0,396.0,448.0,377.0,377.0,469.0,469.0,469.0,469.0,481.0,481.0,481.0,481.0,415.0,415.0,415.0,415.0,466.0,466.0,466.0,466.0,590.0,590.0,597.0,597.0,600.0,600.0,600.0,600.0,644.0,644.0,644.0,644.0,454.0,454.0,454.0,454.0,541.0,541.0,541.0,541.0,396.0,396.0,534.0,534.0,505.0,505.0,505.0,505.0,526.0,526.0,526.0,526.0,548.0,548.0,548.0,548.0,448.0,448.0,448.0,448.0,466.0,466.0,590.0,396.0,466.0,478.77777777777777,568.5555555555555,540.1111111111111,214.0,339.0,175.0,590.0,644.0,548.0
0,415.0,152.0,448.0,469.0,469.0,481.0,481.0,481.0,481.0,415.0,415.0,415.0,415.0,466.0,466.0,466.0,466.0,590.0,590.0,590.0,590.0,505.0,505.0,600.0,600.0,644.0,644.0,644.0,644.0,454.0,454.0,454.0,454.0,541.0,541.0,541.0,541.0,396.0,396.0,396.0,396.0,152.0,152.0,505.0,505.0,526.0,526.0,526.0,526.0,548.0,548.0,548.0,548.0,448.0,448.0,448.0,448.0,466.0,466.0,466.0,466.0,474.0,474.0,505.0,152.0,474.0,478.5111111111111,531.3333333333334,526.6888888888889,213.0,492.0,167.0,590.0,644.0,548.0
0,415.0,152.0,448.0,481.0,481.0,415.0,415.0,415.0,415.0,466.0,466.0,466.0,466.0,590.0,590.0,590.0,590.0,505.0,505.0,505.0,505.0,475.0,475.0,644.0,644.0,454.0,454.0,454.0,454.0,541.0,541.0,541.0,541.0,396.0,396.0,396.0,396.0,152.0,152.0,152.0,152.0,486.0,486.0,526.0,526.0,548.0,548.0,548.0,548.0,448.0,448.0,448.0,448.0,466.0,466.0,466.0,466.0,474.0,474.0,474.0,474.0,463.0,463.0,475.0,486.0,463.0,483.7111111111111,508.31111111111113,514.9555555555555,213.0,492.0,162.0,590.0,644.0,548.0
0,415.0,152.0,448.0,415.0,415.0,466.0,466.0,466.0,466.0,590.0,590.0,590.0,590.0,505.0,505.0,505.0,505.0,475.0,475.0,475.0,475.0,476.0,476.0,454.0,454.0,541.0,541.0,541.0,541.0,396.0,396.0,396.0,396.0,152.0,152.0,152.0,152.0,486.0,486.0,486.0,486.0,508.0,508.0,548.0,548.0,448.0,448.0,448.0,448.0,466.0,466.0,466.0,466.0,474.0,474.0,474.0,474.0,463.0,463.0,463.0,463.0,534.0,534.0,476.0,508.0,534.0,483.8222222222222,500.46666666666664,509.46666666666664,213.0,492.0,162.0,590.0,541.0,548.0
0,458.0,152.0,333.0,466.0,466.0,590.0,590.0,590.0,590.0,505.0,505.0,505.0,505.0,475.0,475.0,475.0,475.0,476.0,476.0,476.0,476.0,458.0,458.0,541.0,541.0,396.0,396.0,396.0,396.0,152.0,152.0,152.0,152.0,486.0,486.0,486.0,486.0,508.0,508.0,508.0,508.0,697.0,697.0,448.0,448.0,466.0,466.0,466.0,466.0,474.0,474.0,474.0,474.0,463.0,463.0,463.0,463.0,534.0,534.0,534.0,534.0,333.0,333.0,458.0,697.0,333.0,475.5111111111111,509.7111111111111,499.7111111111111,213.0,545.0,277.0,590.0,697.0,534.0
0,458.0,152.0,333.0,590.0,590.0,505.0,505.0,505.0,505.0,475.0,475.0,475.0,475.0,476.0,476.0,476.0,476.0,458.0,458.0,458.0,458.0,554.0,554.0,396.0,396.0,152.0,152.0,152.0,152.0,486.0,486.0,486.0,486.0,508.0,508.0,508.0,508.0,697.0,697.0,697.0,697.0,515.0,515.0,466.0,466.0,474.0,474.0,474.0,474.0,463.0,463.0,463.0,463.0,534.0,534.0,534.0,534.0,333.0,333.0,333.0,333.0,530.0,530.0,554.0,515.0,530.0,476.1333333333333,516.3333333333334,493.64444444444445,213.0,545.0,277.0,590.0,697.0,534.0
0,456.0,152.0,333.0,505.0,505.0,505.0,475.0,475.0,475.0,475.0,476.0,476.0,476.0,476.0,458.0,458.0,458.0,458.0,554.0,554.0,554.0,456.0,456.0,152.0,152.0,152.0,486.0,486.0,486.0,486.0,508.0,508.0,508.0,508.0,697.0,697.0,697.0,697.0,515.0,515.0,515.0,663.0,663.0,474.0,474.0,474.0,463.0,463.0,463.0,463.0,534.0,534.0,534.0,534.0,333.0,333.0,333.0,333.0,530.0,530.0,530.0,528.0,528.0,456.0,663.0,528.0,476.0444444444444,514.9111111111112,488.22222222222223,213.0,545.0,215.0,554.0,697.0,534.0
0,456.0,486.0,333.0,475.0,475.0,475.0,475.0,476.0,476.0,476.0,476.0,458.0,458.0,458.0,458.0,554.0,554.0,554.0,456.0,456.0,456.0,500.0,500.0,486.0,486.0,486.0,486.0,508.0,508.0,508.0,508.0,697.0,697.0,697.0,697.0,515.0,515.0,515.0,663.0,663.0,663.0,777.0,777.0,463.0,463.0,463.0,463.0,534.0,534.0,534.0,534.0,333.0,333.0,333.0,333.0,530.0,530.0,530.0,528.0,528.0,528.0,546.0,546.0,500.0,777.0,546.0,483.26666666666665,524.3777777777777,488.6222222222222,213.0,625.0,215.0,554.0,777.0,546.0
0,456.0,486.0,333.0,475.0,476.0,476.0,476.0,476.0,458.0,458.0,458.0,458.0,554.0,554.0,554.0,456.0,456.0,456.0,500.0,500.0,500.0,500.0,509.0,486.0,508.0,508.0,508.0,508.0,697.0,697.0,697.0,697.0,515.0,515.0,515.0,663.0,663.0,663.0,777.0,777.0,777.0,777.0,542.0,463.0,534.0,534.0,534.0,534.0,333.0,333.0,333.0,333.0,530.0,530.0,530.0,528.0,528.0,528.0,546.0,546.0,546.0,546.0,656.0,509.0,542.0,656.0,487.5777777777778,531.0222222222222,493.15555555555557,175.0,625.0,323.0,554.0,777.0,656.0
0,456.0,451.0,333.0,476.0,458.0,458.0,458.0,458.0,554.0,554.0,554.0,456.0,456.0,456.0,500.0,500.0,500.0,500.0,509.0,509.0,509.0,505.0,505.0,508.0,697.0,697.0,697.0,697.0,515.0,515.0,515.0,663.0,663.0,663.0,777.0,777.0,777.0,777.0,542.0,542.0,542.0,451.0,451.0,534.0,333.0,333.0,333.0,333.0,530.0,530.0,530.0,528.0,528.0,528.0,546.0,546.0,546.0,546.0,656.0,656.0,656.0,651.0,651.0,505.0,451.0,651.0,490.4222222222222,519.8666666666667,505.4222222222222,175.0,625.0,323.0,554.0,777.0,656.0
0,456.0,451.0,333.0,458.0,554.0,554.0,554.0,456.0,456.0,456.0,500.0,500.0,500.0,500.0,509.0,509.0,509.0,505.0,505.0,505.0,505.0,580.0,580.0,697.0,515.0,515.0,515.0,663.0,663.0,663.0,777.0,777.0,777.0,777.0,542.0,542.0,542.0,451.0,451.0,451.0,451.0,563.0,563.0,333.0,530.0,530.0,530.0,528.0,528.0,528.0,546.0,546.0,546.0,546.0,656.0,656.0,656.0,651.0,651.0,651.0,651.0,594.0,594.0,580.0,563.0,594.0,498.8222222222222,516.1333333333333,513.0222222222222,175.0,625.0,323.0,580.0,777.0,656.0
0,456.0,451.0,528.0,456.0,456.0,456.0,500.0,500.0,500.0,500.0,509.0,509.0,509.0,505.0,505.0,505.0,505.0,580.0,580.0,580.0,580.0,497.0,497.0,663.0,663.0,663.0,777.0,777.0,777.0,777.0,542.0,542.0,542.0,451.0,451.0,451.0,451.0,563.0,563.0,563.0,563.0,604.0,604.0,528.0,528.0,528.0,546.0,546.0,546.0,546.0,656.0,656.0,656.0,651.0,651.0,651.0,651.0,594.0,594.0,594.0,594.0,598.0,598.0,497.0,604.0,598.0,507.53333333333336,523.7777777777778,521.7333333333333,134.0,625.0,323.0,580.0,777.0,656.0
0,497.0,451.0,546.0,500.0,500.0,500.0,509.0,509.0,509.0,505.0,505.0,505.0,505.0,580.0,580.0,580.0,580.0,497.0,497.0,497.0,497.0,535.0,535.0,777.0,777.0,777.0,542.0,542.0,542.0,451.0,451.0,451.0,451.0,563.0,563.0,563.0,563.0,604.0,604.0,604.0,604.0,680.0,680.0,546.0,546.0,546.0,656.0,656.0,656.0,651.0,651.0,651.0,651.0,594.0,594.0,594.0,594.0,598.0,598.0,598.0,598.0,579.0,579.0,535.0,680.0,579.0,506.46666666666664,539.2,533.4222222222222,134.0,625.0,323.0,580.0,777.0,656.0
0,497.0,186.0,579.0,509.0,505.0,505.0,505.0,505.0,580.0,580.0,580.0,580.0,497.0,497.0,497.0,497.0,535.0,535.0,535.0,535.0,535.0,534.0,534.0,542.0,451.0,451.0,451.0,451.0,563.0,563.0,563.0,563.0,604.0,604.0,604.0,604.0,680.0,680.0,680.0,680.0,680.0,186.0,186.0,656.0,651.0,651.0,651.0,651.0,594.0,594.0,594.0,594.0,598.0,598.0,598.0,598.0,579.0,579.0,579.0,579.0,579.0,684.0,684.0,534.0,186.0,684.0,505.97777777777776,565.0666666666667,550.1111111111111,124.0,625.0,351.0,580.0,680.0,684.0
0,446.0,186.0,270.0,505.0,505.0,580.0,580.0,580.0,580.0,497.0,497.0,497.0,497.0,535.0,535.0,535.0,535.0,535.0,534.0,534.0,534.0,446.0,446.0,451.0,451.0,563.0,563.0,563.0,563.0,604.0,604.0,604.0,604.0,680.0,680.0,680.0,680.0,680.0,186.0,186.0,186.0,431.0,431.0,651.0,651.0,594.0,594.0,594.0,594.0,598.0,598.0,598.0,598.0,579.0,579.0,579.0,579.0,684.0,684.0,684.0,684.0,270.0,270.0,446.0,431.0,270.0,507.2888888888889,557.9333333333333,555.4,134.0,591.0,414.0,580.0,680.0,684.0
0,446.0,186.0,270.0,580.0,580.0,497.0,497.0,497.0,497.0,535.0,535.0,535.0,535.0,535.0,534.0,534.0,534.0,534.0,446.0,446.0,446.0,730.0,730.0,563.0,563.0,604.0,604.0,604.0,604.0,680.0,680.0,680.0,680.0,680.0,186.0,186.0,186.0,186.0,431.0,431.0,431.0,633.0,633.0,594.0,594.0,598.0,598.0,598.0,598.0,579.0,579.0,579.0,579.0,579.0,684.0,684.0,684.0,684.0,270.0,270.0,270.0,524.0,524.0,730.0,633.0,524.0,517.2888888888889,561.0444444444445,546.3777777777777,284.0,591.0,414.0,730.0,680.0,684.0
0,423.0,186.0,270.0,497.0,497.0,535.0,535.0,535.0,535.0,534.0,534.0,534.0,534.0,446.0,446.0,446.0,730.0,730.0,730.0,730.0,423.0,423.0,423.0,604.0,604.0,680.0,680.0,680.0,680.0,186.0,186.0,186.0,186.0,431.0,431.0,431.0,633.0,633.0,633.0,633.0,557.0,557.0,557.0,598.0,598.0,579.0,579.0,579.0,579.0,684.0,684.0,684.0,684.0,270.0,270.0,270.0,524.0,524.0,524.0,524.0,760.0,760.0,760.0,423.0,557.0,760.0,527.0222222222222,560.3777777777777,564.9111111111112,307.0,591.0,490.0,730.0,680.0,760.0
0,423.0,186.0,270.0,535.0,535.0,534.0,534.0,534.0,534.0,446.0,446.0,446.0,730.0,730.0,730.0,730.0,423.0,423.0,423.0,423.0,423.0,579.0,579.0,680.0,680.0,186.0,186.0,186.0,186.0,431.0,431.0,431.0,633.0,633.0,633.0,633.0,557.0,557.0,557.0,557.0,557.0,267.0,267.0,579.0,579.0,684.0,684.0,684.0,684.0,270.0,270.0,270.0,524.0,524.0,524.0,524.0,760.0,760.0,760.0,760.0,760.0,479.0,479.0,579.0,267.0,479.0,523.6666666666666,544.0666666666667,586.7333333333333,307.0,591.0,490.0,730.0,680.0,760.0
0,423.0,186.0,270.0,534.0,534.0,446.0,446.0,446.0,730.0,730.0,730.0,730.0,423.0,423.0,423.0,423.0,423.0,579.0,579.0,579.0,579.0,524.0,524.0,186.0,186.0,431.0,431.0,431.0,633.0,633.0,633.0,633.0,557.0,557.0,557.0,557.0,557.0,267.0,267.0,267.0,267.0,371.0,371.0,684.0,684.0,270.0,270.0,270.0,524.0,524.0,524.0,524.0,760.0,760.0,760.0,760.0,760.0,479.0,479.0,479.0,479.0,481.0,481.0,524.0,371.0,481.0,531.1777777777778,510.9555555555556,582.0666666666667,307.0,591.0,490.0,730.0,633.0,760.0
0,423.0,267.0,270.0,446.0,730.0,730.0,730.0,730.0,423.0,423.0,423.0,423.0,423.0,579.0,579.0,579.0,579.0,524.0,524.0,524.0,524.0,516.0,516.0,431.0,633.0,633.0,633.0,633.0,557.0,557.0,557.0,557.0,557.0,267.0,267.0,267.0,267.0,371.0,371.0,371.0,371.0,369.0,369.0,270.0,524.0,524.0,524.0,524.0,760.0,760.0,760.0,760.0,760.0,479.0,479.0,479.0,479.0,481.0,481.0,481.0,481.0,531.0,531.0,516.0,369.0,531.0,532.6,483.84444444444443,578.8444444444444,307.0,494.0,490.0,730.0,633.0,760.0
0,423.0,267.0,377.0,730.0,423.0,423.0,423.0,423.0,423.0,579.0,579.0,579.0,579.0,524.0,524.0,524.0,524.0,516.0,516.0,516.0,516.0,491.0,491.0,633.0,557.0,557.0,557.0,557.0,557.0,267.0,267.0,267.0,267.0,371.0,371.0,371.0,371.0,369.0,369.0,369.0,369.0,433.0,433.0,524.0,760.0,760.0,760.0,760.0,760.0,479.0,479.0,479.0,479.0,481.0,481.0,481.0,481.0,531.0,531.0,531.0,531.0,377.0,377.0,491.0,433.0,377.0,532.4444444444445,471.5111111111111,558.3333333333334,307.0,494.0,490.0,730.0,633.0,760.0
0,423.0,267.0,377.0,423.0,423.0,579.0,579.0,579.0,579.0,524.0,524.0,524.0,524.0,516.0,516.0,516.0,516.0,491.0,491.0,491.0,491.0,447.0,447.0,557.0,557.0,267.0,267.0,267.0,267.0,371.0,371.0,371.0,371.0,369.0,369.0,369.0,369.0,433.0,433.0,433.0,433.0,447.0,447.0,760.0,760.0,479.0,479.0,479.0,479.0,481.0,481.0,481.0,481.0,531.0,531.0,531.0,531.0,377.0,377.0,377.0,377.0,414.0,414.0,447.0,447.0,414.0,525.9111111111112,465.55555555555554,538.1555555555556,307.0,494.0,490.0,579.0,557.0,760.0
0,447.0,267.0,377.0,579.0,579.0,524.0,524.0,524.0,524.0,516.0,516.0,516.0,516.0,491.0,491.0,491.0,491.0,447.0,447.0,447.0,447.0,620.0,620.0,267.0,267.0,371.0,371.0,371.0,371.0,369.0,369.0,369.0,369.0,433.0,433.0,433.0,433.0,447.0,447.0,447.0,447.0,477.0,477.0,479.0,479.0,481.0,481.0,481.0,481.0,531.0,531.0,531.0,531.0,377.0,377.0,377.0,377.0,414.0,414.0,414.0,414.0,489.0,489.0,620.0,477.0,489.0,525.4666666666667,454.75555555555553,525.3111111111111,307.0,494.0,490.0,620.0,477.0,531.0
0,447.0,369.0,377.0,524.0,524.0,524.0,516.0,516.0,516.0,516.0,491.0,491.0,491.0,491.0,447.0,447.0,447.0,447.0,620.0,620.0,620.0,482.0,482.0,371.0,371.0,371.0,369.0,369.0,369.0,369.0,433.0,433.0,433.0,433.0,447.0,447.0,447.0,447.0,477.0,477.0,477.0,616.0,616.0,481.0,481.0,481.0,531.0,531.0,531.0,531.0,377.0,377.0,377.0,377.0,414.0,414.0,414.0,414.0,489.0,489.0,489.0,587.0,587.0,482.0,616.0,587.0,526.6888888888889,450.77777777777777,522.8222222222222,307.0,494.0,490.0,620.0,616.0,587.0
0,447.0,361.0,377.0,516.0,516.0,516.0,516.0,491.0,491.0,491.0,491.0,447.0,447.0,447.0,447.0,620.0,620.0,620.0,482.0,482.0,482.0,482.0,505.0,369.0,369.0,369.0,369.0,433.0,433.0,433.0,433.0,447.0,447.0,447.0,447.0,477.0,477.0,477.0,616.0,616.0,616.0,616.0,361.0,531.0,531.0,531.0,531.0,377.0,377.0,377.0,377.0,414.0,414.0,414.0,414.0,489.0,489.0,489.0,587.0,587.0,587.0,587.0,518.0,505.0,361.0,518.0,523.6666666666666,440.84444444444443,521.8222222222222,307.0,494.0,490.0,620.0,616.0,587.0
0,447.0,361.0,377.0,491.0,491.0,491.0,491.0,447.0,447.0,447.0,447.0,620.0,620.0,620.0,482.0,482.0,482.0,482.0,505.0,505.0,505.0,545.0,545.0,433.0,433.0,433.0,433.0,447.0,447.0,447.0,447.0,477.0,477.0,477.0,616.0,616.0,616.0,616.0,361.0,361.0,361.0,379.0,379.0,377.0,377.0,377.0,377.0,414.0,414.0,414.0,414.0,489.0,489.0,489.0,587.0,587.0,587.0,587.0,518.0,518.0,518.0,440.0,440.0,545.0,379.0,440.0,522.8444444444444,446.22222222222223,505.93333333333334,307.0,447.0,490.0,620.0,616.0,587.0
0,435.0,240.0,414.0,447.0,447.0,447.0,447.0,620.0,620.0,620.0,482.0,482.0,482.0,482.0,505.0,505.0,505.0,545.0,545.0,545.0,545.0,435.0,435.0,447.0,447.0,447.0,447.0,477.0,477.0,477.0,616.0,616.0,616.0,616.0,361.0,361.0,361.0,379.0,379.0,379.0,379.0,240.0,240.0,414.0,414.0,414.0,414.0,489.0,489.0,489.0,587.0,587.0,587.0,587.0,518.0,518.0,518.0,440.0,440.0,440.0,440.0,497.0,497.0,435.0,240.0,497.0,524.8,440.8666666666667,514.3777777777777,307.0,393.0,383.0,620.0,616.0,587.0
0,435.0,240.0,440.0,620.0,620.0,482.0,482.0,482.0,482.0,505.0,505.0,505.0,545.0,545.0,545.0,545.0,435.0,435.0,435.0,435.0,435.0,562.0,562.0,477.0,477.0,616.0,616.0,616.0,616.0,361.0,361.0,361.0,379.0,379.0,379.0,379.0,240.0,240.0,240.0,240.0,240.0,641.0,641.0,489.0,489.0,587.0,587.0,587.0,587.0,518.0,518.0,518.0,440.0,440.0,440.0,440.0,497.0,497.0,497.0,497.0,497.0,455.0,455.0,562.0,641.0,455.0,504.4888888888889,416.7111111111111,504.26666666666665,197.0,401.0,383.0,620.0,641.0,587.0
0,435.0,240.0,440.0,482.0,482.0,482.0,505.0,505.0,505.0,545.0,545.0,545.0,545.0,435.0,435.0,435.0,435.0,435.0,562.0,562.0,562.0,570.0,570.0,616.0,616.0,616.0,361.0,361.0,361.0,379.0,379.0,379.0,379.0,240.0,240.0,240.0,240.0,240.0,641.0,641.0,641.0,477.0,477.0,587.0,587.0,587.0,518.0,518.0,518.0,440.0,440.0,440.0,440.0,497.0,497.0,497.0,497.0,497.0,455.0,455.0,455.0,626.0,626.0,570.0,477.0,626.0,514.1111111111111,415.02222222222224,491.53333333333336,197.0,401.0,383.0,570.0,641.0,626.0
0,435.0,240.0,440.0,505.0,505.0,545.0,545.0,545.0,545.0,435.0,435.0,435.0,435.0,435.0,562.0,562.0,562.0,570.0,570.0,570.0,570.0,469.0,469.0,361.0,361.0,379.0,379.0,379.0,379.0,240.0,240.0,240.0,240.0,240.0,641.0,641.0,641.0,477.0,477.0,477.0,477.0,554.0,554.0,518.0,518.0,440.0,440.0,440.0,440.0,497.0,497.0,497.0,497.0,497.0,455.0,455.0,455.0,626.0,626.0,626.0,626.0,546.0,546.0,469.0,554.0,546.0,512.2888888888889,430.6666666666667,494.8,185.0,401.0,249.0,570.0,641.0,626.0
0,435.0,240.0,440.0,545.0,545.0,435.0,435.0,435.0,435.0,435.0,562.0,562.0,562.0,570.0,570.0,570.0,570.0,469.0,469.0,469.0,469.0,448.0,448.0,379.0,379.0,240.0,240.0,240.0,240.0,240.0,641.0,641.0,641.0,477.0,477.0,477.0,477.0,554.0,554.0,554.0,554.0,615.0,615.0,440.0,440.0,497.0,497.0,497.0,497.0,497.0,455.0,455.0,455.0,626.0,626.0,626.0,626.0,546.0,546.0,546.0,546.0,624.0,624.0,448.0,615.0,624.0,505.24444444444447,451.9555555555556,504.0888888888889,185.0,401.0,249.0,570.0,641.0,626.0
0,277.0,240.0,455.0,435.0,435.0,435.0,562.0,562.0,562.0,570.0,570.0,570.0,570.0,469.0,469.0,469.0,469.0,448.0,448.0,448.0,448.0,277.0,277.0,240.0,240.0,240.0,641.0,641.0,641.0,477.0,477.0,477.0,477.0,554.0,554.0,554.0,554.0,615.0,615.0,615.0,615.0,585.0,585.0,497.0,497.0,497.0,455.0,455.0,455.0,626.0,626.0,626.0,626.0,546.0,546.0,546.0,546.0,624.0,624.0,624.0,624.0,579.0,579.0,277.0,585.0,579.0,491.4222222222222,472.44444444444446,511.46666666666664,343.0,401.0,249.0,570.0,641.0,626.0
0,277.0,477.0,455.0,562.0,562.0,570.0,570.0,570.0,570.0,469.0,469.0,469.0,469.0,448.0,448.0,448.0,448.0,277.0,277.0,277.0,277.0,500.0,500.0,641.0,641.0,477.0,477.0,477.0,477.0,554.0,554.0,554.0,554.0,615.0,615.0,615.0,615.0,585.0,585.0,585.0,585.0,584.0,584.0,455.0,455.0,626.0,626.0,626.0,626.0,546.0,546.0,546.0,546.0,624.0,624.0,624.0,624.0,579.0,579.0,579.0,579.0,513.0,513.0,500.0,584.0,513.0,481.75555555555553,487.3333333333333,523.0666666666667,343.0,401.0,249.0,570.0,641.0,626.0
0,277.0,477.0,513.0,570.0,570.0,570.0,469.0,469.0,469.0,469.0,448.0,448.0,448.0,448.0,277.0,277.0,277.0,277.0,500.0,500.0,500.0,500.0,514.0,477.0,477.0,477.0,554.0,554.0,554.0,554.0,615.0,615.0,615.0,615.0,585.0,585.0,585.0,585.0,584.0,584.0,584.0,584.0,675.0,626.0,626.0,626.0,546.0,546.0,546.0,546.0,624.0,624.0,624.0,624.0,579.0,579.0,579.0,579.0,513.0,513.0,513.0,513.0,702.0,514.0,675.0,702.0,484.6222222222222,498.8,534.6888888888889,343.0,435.0,288.0,570.0,675.0,702.0
0,277.0,554.0,367.0,469.0,469.0,469.0,448.0,448.0,448.0,448.0,277.0,277.0,277.0,277.0,500.0,500.0,500.0,500.0,514.0,514.0,514.0,514.0,356.0,554.0,554.0,554.0,615.0,615.0,615.0,615.0,585.0,585.0,585.0,585.0,584.0,584.0,584.0,584.0,675.0,675.0,675.0,675.0,723.0,546.0,546.0,546.0,624.0,624.0,624.0,624.0,579.0,579.0,579.0,579.0,513.0,513.0,513.0,513.0,702.0,702.0,702.0,702.0,367.0,356.0,723.0,367.0,479.3777777777778,518.8,549.5111111111111,343.0,483.0,335.0,514.0,723.0,702.0
0,277.0,509.0,367.0,448.0,448.0,277.0,277.0,277.0,277.0,500.0,500.0,500.0,500.0,514.0,514.0,514.0,514.0,356.0,356.0,356.0,356.0,695.0,695.0,615.0,615.0,585.0,585.0,585.0,585.0,584.0,584.0,584.0,584.0,675.0,675.0,675.0,675.0,723.0,723.0,723.0,723.0,509.0,509.0,624.0,624.0,579.0,579.0,579.0,579.0,513.0,513.0,513.0,513.0,702.0,702.0,702.0,702.0,367.0,367.0,367.0,367.0,514.0,514.0,695.0,509.0,514.0,477.3777777777778,524.2666666666667,533.7777777777778,418.0,483.0,335.0,695.0,723.0,702.0
0,277.0,493.0,367.0,277.0,277.0,500.0,500.0,500.0,500.0,514.0,514.0,514.0,514.0,356.0,356.0,356.0,356.0,695.0,695.0,695.0,695.0,448.0,448.0,585.0,585.0,584.0,584.0,584.0,584.0,675.0,675.0,675.0,675.0,723.0,723.0,723.0,723.0,509.0,509.0,509.0,509.0,493.0,493.0,579.0,579.0,513.0,513.0,513.0,513.0,702.0,702.0,702.0,702.0,367.0,367.0,367.0,367.0,514.0,514.0,514.0,514.0,555.0,555.0,448.0,493.0,555.0,482.4,536.3111111111111,536.9777777777778,418.0,483.0,335.0,695.0,723.0,702.0
0,356.0,493.0,307.0,500.0,500.0,514.0,514.0,514.0,514.0,356.0,356.0,356.0,356.0,695.0,695.0,695.0,695.0,448.0,448.0,448.0,448.0,468.0,468.0,584.0,584.0,675.0,675.0,675.0,675.0,723.0,723.0,723.0,723.0,509.0,509.0,509.0,509.0,493.0,493.0,493.0,493.0,602.0,602.0,513.0,513.0,702.0,702.0,702.0,702.0,367.0,367.0,367.0,367.0,514.0,514.0,514.0,514.0,555.0,555.0,555.0,555.0,307.0,307.0,468.0,602.0,307.0,477.1111111111111,554.3777777777777,534.9111111111112,418.0,483.0,395.0,695.0,723.0,702.0
0,106.0,493.0,307.0,514.0,356.0,356.0,356.0,356.0,695.0,695.0,695.0,695.0,448.0,448.0,448.0,448.0,468.0,468.0,468.0,468.0,468.0,106.0,106.0,675.0,723.0,723.0,723.0,723.0,509.0,509.0,509.0,509.0,493.0,493.0,493.0,493.0,602.0,602.0,602.0,602.0,602.0,524.0,524.0,702.0,367.0,367.0,367.0,367.0,514.0,514.0,514.0,514.0,555.0,555.0,555.0,555.0,307.0,307.0,307.0,307.0,307.0,548.0,548.0,106.0,524.0,548.0,461.8666666666667,582.2222222222222,525.4444444444445,589.0,246.0,395.0,695.0,723.0,702.0
0,106.0,493.0,307.0,356.0,695.0,695.0,695.0,695.0,448.0,448.0,448.0,448.0,468.0,468.0,468.0,468.0,468.0,106.0,106.0,106.0,106.0,469.0,469.0,723.0,509.0,509.0,509.0,509.0,493.0,493.0,493.0,493.0,602.0,602.0,602.0,602.0,602.0,524.0,524.0,524.0,524.0,552.0,552.0,367.0,514.0,514.0,514.0,514.0,555.0,555.0,555.0,555.0,307.0,307.0,307.0,307.0,307.0,548.0,548.0,548.0,548.0,652.0,652.0,469.0,552.0,652.0,437.1111111111111,580.3555555555556,530.7333333333333,589.0,246.0,395.0,695.0,723.0,652.0
0,106.0,493.0,307.0,695.0,448.0,448.0,448.0,448.0,468.0,468.0,468.0,468.0,468.0,106.0,106.0,106.0,106.0,469.0,469.0,469.0,469.0,435.0,435.0,509.0,493.0,493.0,493.0,493.0,602.0,602.0,602.0,602.0,602.0,524.0,524.0,524.0,524.0,552.0,552.0,552.0,552.0,532.0,532.0,514.0,555.0,555.0,555.0,555.0,307.0,307.0,307.0,307.0,307.0,548.0,548.0,548.0,548.0,652.0,652.0,652.0,652.0,590.0,590.0,435.0,532.0,590.0,431.1111111111111,582.7111111111111,533.8444444444444,589.0,230.0,395.0,695.0,602.0,652.0
0,106.0,458.0,307.0,448.0,448.0,468.0,468.0,468.0,468.0,468.0,106.0,106.0,106.0,106.0,469.0,469.0,469.0,469.0,435.0,435.0,435.0,573.0,573.0,493.0,493.0,602.0,602.0,602.0,602.0,602.0,524.0,524.0,524.0,524.0,552.0,552.0,552.0,552.0,532.0,532.0,532.0,458.0,458.0,555.0,555.0,307.0,307.0,307.0,307.0,307.0,548.0,548.0,548.0,548.0,652.0,652.0,652.0,652.0,590.0,590.0,590.0,523.0,523.0,573.0,458.0,523.0,435.44444444444446,576.6,532.0666666666667,589.0,265.0,395.0,573.0,602.0,652.0
0,106.0,452.0,307.0,468.0,468.0,468.0,106.0,106.0,106.0,106.0,469.0,469.0,469.0,469.0,435.0,435.0,435.0,573.0,573.0,573.0,573.0,353.0,353.0,602.0,602.0,602.0,524.0,524.0,524.0,524.0,552.0,552.0,552.0,552.0,532.0,532.0,532.0,458.0,458.0,458.0,458.0,452.0,452.0,307.0,307.0,307.0,548.0,548.0,548.0,548.0,652.0,652.0,652.0,652.0,590.0,590.0,590.0,523.0,523.0,523.0,523.0,460.0,460.0,353.0,452.0,460.0,440.5777777777778,563.0444444444445,521.2888888888889,589.0,271.0,395.0,573.0,602.0,652.0
0,106.0,324.0,379.0,106.0,106.0,106.0,469.0,469.0,469.0,469.0,435.0,435.0,435.0,573.0,573.0,573.0,573.0,353.0,353.0,353.0,353.0,645.0,645.0,524.0,524.0,524.0,552.0,552.0,552.0,552.0,532.0,532.0,532.0,458.0,458.0,458.0,458.0,452.0,452.0,452.0,452.0,324.0,324.0,548.0,548.0,548.0,652.0,652.0,652.0,652.0,590.0,590.0,590.0,523.0,523.0,523.0,523.0,460.0,460.0,460.0,460.0,379.0,379.0,645.0,324.0,379.0,455.35555555555555,545.5555555555555,508.5777777777778,589.0,399.0,395.0,645.0,552.0,652.0
0,353.0,324.0,379.0,469.0,469.0,469.0,469.0,435.0,435.0,435.0,573.0,573.0,573.0,573.0,353.0,353.0,353.0,353.0,645.0,645.0,645.0,645.0,495.0,552.0,552.0,552.0,552.0,532.0,532.0,532.0,458.0,458.0,458.0,458.0,452.0,452.0,452.0,452.0,324.0,324.0,324.0,324.0,561.0,652.0,652.0,652.0,652.0,590.0,590.0,590.0,523.0,523.0,523.0,523.0,460.0,460.0,460.0,460.0,379.0,379.0,379.0,379.0,454.0,495.0,561.0,454.0,461.68888888888887,533.4888888888889,501.31111111111113,589.0,399.0,395.0,645.0,561.0,652.0
0,353.0,324.0,379.0,469.0,435.0,435.0,435.0,573.0,573.0,573.0,573.0,353.0,353.0,353.0,353.0,645.0,645.0,645.0,645.0,495.0,495.0,495.0,495.0,552.0,532.0,532.0,532.0,458.0,458.0,458.0,458.0,452.0,452.0,452.0,452.0,324.0,324.0,324.0,324.0,561.0,561.0,561.0,561.0,652.0,590.0,590.0,590.0,523.0,523.0,523.0,523.0,460.0,460.0,460.0,460.0,379.0,379.0,379.0,379.0,454.0,454.0,454.0,454.0,495.0,561.0,454.0,460.4222222222222,525.8888888888889,484.77777777777777,589.0,399.0,395.0,645.0,561.0,652.0
0,353.0,324.0,155.0,573.0,573.0,573.0,353.0,353.0,353.0,353.0,645.0,645.0,645.0,645.0,495.0,495.0,495.0,495.0,554.0,554.0,554.0,433.0,433.0,458.0,458.0,458.0,452.0,452.0,452.0,452.0,324.0,324.0,324.0,324.0,561.0,561.0,561.0,561.0,391.0,391.0,391.0,406.0,406.0,523.0,523.0,523.0,460.0,460.0,460.0,460.0,379.0,379.0,379.0,379.0,454.0,454.0,454.0,454.0,516.0,516.0,516.0,155.0,155.0,433.0,406.0,155.0,473.53333333333336,490.73333333333335,477.84444444444443,589.0,278.0,497.0,645.0,561.0,523.0
0,353.0,324.0,155.0,353.0,353.0,353.0,645.0,645.0,645.0,645.0,495.0,495.0,495.0,495.0,554.0,554.0,554.0,433.0,433.0,433.0,433.0,433.0,501.0,452.0,452.0,452.0,324.0,324.0,324.0,324.0,561.0,561.0,561.0,561.0,391.0,391.0,391.0,406.0,406.0,406.0,406.0,406.0,425.0,460.0,460.0,460.0,379.0,379.0,379.0,379.0,454.0,454.0,454.0,454.0,516.0,516.0,516.0,155.0,155.0,155.0,155.0,155.0,598.0,501.0,425.0,598.0,451.75555555555553,482.0,455.77777777777777,539.0,278.0,497.0,645.0,561.0,598.0
0,433.0,324.0,155.0,645.0,645.0,495.0,495.0,495.0,495.0,554.0,554.0,554.0,433.0,433.0,433.0,433.0,433.0,501.0,501.0,501.0,501.0,501.0,577.0,324.0,324.0,561.0,561.0,561.0,561.0,391.0,391.0,391.0,406.0,406.0,406.0,406.0,406.0,425.0,425.0,425.0,425.0,425.0,560.0,379.0,379.0,454.0,454.0,454.0,454.0,516.0,516.0,516.0,155.0,155.0,155.0,155.0,155.0,598.0,598.0,598.0,598.0,598.0,289.0,577.0,560.0,289.0,458.8888888888889,475.02222222222224,459.2,539.0,278.0,497.0,645.0,561.0,598.0
0,433.0,391.0,155.0,554.0,554.0,554.0,433.0,433.0,433.0,433.0,433.0,501.0,501.0,501.0,501.0,501.0,577.0,577.0,577.0,577.0,577.0,577.0,394.0,391.0,391.0,391.0,406.0,406.0,406.0,406.0,406.0,425.0,425.0,425.0,425.0,425.0,560.0,560.0,560.0,560.0,560.0,560.0,525.0,516.0,516.0,516.0,155.0,155.0,155.0,155.0,155.0,598.0,598.0,598.0,598.0,598.0,289.0,289.0,289.0,289.0,289.0,289.0,493.0,577.0,560.0,289.0,479.0444444444444,472.0888888888889,451.84444444444443,539.0,237.0,497.0,577.0,560.0,598.0
0,394.0,406.0,155.0,433.0,433.0,433.0,433.0,501.0,501.0,501.0,501.0,501.0,577.0,577.0,577.0,577.0,577.0,577.0,394.0,394.0,394.0,394.0,540.0,406.0,406.0,406.0,406.0,425.0,425.0,425.0,425.0,425.0,560.0,560.0,560.0,560.0,560.0,560.0,525.0,525.0,525.0,525.0,439.0,155.0,155.0,155.0,155.0,598.0,598.0,598.0,598.0,598.0,289.0,289.0,289.0,289.0,289.0,289.0,493.0,493.0,493.0,493.0,539.0,540.0,439.0,539.0,498.15555555555557,469.0444444444444,442.1333333333333,292.0,237.0,497.0,577.0,560.0,598.0
0,394.0,425.0,289.0,501.0,501.0,501.0,501.0,577.0,577.0,577.0,577.0,577.0,577.0,394.0,394.0,394.0,394.0,540.0,540.0,540.0,540.0,567.0,567.0,425.0,425.0,425.0,425.0,560.0,560.0,560.0,560.0,560.0,560.0,525.0,525.0,525.0,525.0,439.0,439.0,439.0,439.0,539.0,539.0,598.0,598.0,598.0,598.0,289.0,289.0,289.0,289.0,289.0,289.0,493.0,493.0,493.0,493.0,539.0,539.0,539.0,539.0,321.0,321.0,567.0,539.0,321.0,509.5111111111111,462.26666666666665,424.02222222222224,292.0,237.0,443.0,577.0,560.0,598.0
0,394.0,439.0,289.0,577.0,577.0,577.0,577.0,577.0,577.0,394.0,394.0,394.0,394.0,540.0,540.0,540.0,540.0,567.0,567.0,567.0,567.0,643.0,643.0,560.0,560.0,560.0,560.0,560.0,560.0,525.0,525.0,525.0,525.0,439.0,439.0,439.0,439.0,539.0,539.0,539.0,539.0,508.0,508.0,289.0,289.0,289.0,289.0,289.0,289.0,493.0,493.0,493.0,493.0,539.0,539.0,539.0,539.0,321.0,321.0,321.0,321.0,615.0,615.0,643.0,508.0,615.0,512.3555555555556,468.0888888888889,419.1333333333333,292.0,237.0,460.0,643.0,560.0,615.0
0,394.0,439.0,289.0,577.0,577.0,394.0,394.0,394.0,394.0,540.0,540.0,540.0,540.0,567.0,567.0,567.0,567.0,643.0,643.0,643.0,643.0,550.0,550.0,560.0,560.0,525.0,525.0,525.0,525.0,439.0,439.0,439.0,439.0,539.0,539.0,539.0,539.0,508.0,508.0,508.0,508.0,532.0,532.0,289.0,289.0,493.0,493.0,493.0,493.0,539.0,539.0,539.0,539.0,321.0,321.0,321.0,321.0,615.0,615.0,615.0,615.0,585.0,585.0,550.0,532.0,585.0,534.0,474.1333333333333,431.5777777777778,251.0,237.0,460.0,643.0,560.0,615.0
0,394.0,439.0,321.0,394.0,394.0,540.0,540.0,540.0,540.0,567.0,567.0,567.0,567.0,643.0,643.0,643.0,643.0,550.0,550.0,550.0,550.0,513.0,513.0,525.0,525.0,439.0,439.0,439.0,439.0,539.0,539.0,539.0,539.0,508.0,508.0,508.0,508.0,532.0,532.0,532.0,532.0,760.0,760.0,493.0,493.0,539.0,539.0,539.0,539.0,321.0,321.0,321.0,321.0,615.0,615.0,615.0,615.0,585.0,585.0,585.0,585.0,498.0,498.0,513.0,760.0,498.0,524.7333333333333,497.68888888888887,447.9555555555556,249.0,369.0,460.0,643.0,760.0,615.0
0,434.0,439.0,321.0,540.0,540.0,567.0,567.0,567.0,567.0,643.0,643.0,643.0,643.0,550.0,550.0,550.0,550.0,550.0,513.0,513.0,513.0,434.0,434.0,439.0,439.0,539.0,539.0,539.0,539.0,508.0,508.0,508.0,508.0,532.0,532.0,532.0,532.0,532.0,760.0,760.0,760.0,667.0,667.0,539.0,539.0,321.0,321.0,321.0,321.0,615.0,615.0,615.0,615.0,585.0,585.0,585.0,585.0,585.0,498.0,498.0,498.0,609.0,609.0,434.0,667.0,609.0,522.8222222222222,511.24444444444447,456.8,249.0,369.0,460.0,643.0,760.0,615.0
0,434.0,508.0,321.0,567.0,567.0,643.0,643.0,643.0,643.0,550.0,550.0,550.0,550.0,550.0,513.0,513.0,513.0,434.0,434.0,434.0,434.0,575.0,575.0,539.0,539.0,508.0,508.0,508.0,508.0,532.0,532.0,532.0,532.0,532.0,760.0,760.0,760.0,667.0,667.0,667.0,667.0,649.0,649.0,321.0,321.0,615.0,615.0,615.0,615.0,585.0,585.0,585.0,585.0,585.0,498.0,498.0,498.0,609.0,609.0,609.0,609.0,599.0,599.0,575.0,649.0,599.0,521.1111111111111,534.6444444444444,472.64444444444445,249.0,354.0,460.0,643.0,760.0,615.0
0,434.0,500.0,498.0,643.0,643.0,643.0,550.0,550.0,550.0,550.0,550.0,513.0,513.0,513.0,434.0,434.0,434.0,434.0,575.0,575.0,575.0,575.0,577.0,508.0,508.0,508.0,532.0,532.0,532.0,532.0,532.0,760.0,760.0,760.0,667.0,667.0,667.0,667.0,649.0,649.0,649.0,649.0,500.0,615.0,615.0,615.0,585.0,585.0,585.0,585.0,585.0,498.0,498.0,498.0,609.0,609.0,609.0,609.0,599.0,599.0,599.0,599.0,518.0,577.0,500.0,518.0,530.6222222222223,547.5333333333333,500.44444444444446,249.0,354.0,460.0,643.0,760.0,615.0
0,434.0,500.0,408.0,550.0,550.0,550.0,550.0,513.0,513.0,513.0,434.0,434.0,434.0,434.0,575.0,575.0,575.0,575.0,577.0,577.0,577.0,577.0,538.0,532.0,532.0,532.0,532.0,760.0,760.0,760.0,667.0,667.0,667.0,667.0,649.0,649.0,649.0,649.0,500.0,500.0,500.0,500.0,524.0,585.0,585.0,585.0,585.0,498.0,498.0,498.0,609.0,609.0,609.0,609.0,599.0,599.0,599.0,599.0,518.0,518.0,518.0,518.0,408.0,538.0,524.0,408.0,538.0222222222222,555.1555555555556,500.73333333333335,249.0,335.0,326.0,577.0,760.0,609.0
0,417.0,500.0,345.0,513.0,513.0,434.0,434.0,434.0,434.0,575.0,575.0,575.0,575.0,577.0,577.0,577.0,577.0,538.0,538.0,538.0,538.0,417.0,417.0,760.0,760.0,667.0,667.0,667.0,667.0,649.0,649.0,649.0,649.0,500.0,500.0,500.0,500.0,524.0,524.0,524.0,524.0,698.0,698.0,498.0,498.0,609.0,609.0,609.0,609.0,599.0,599.0,599.0,599.0,518.0,518.0,518.0,518.0,408.0,408.0,408.0,408.0,345.0,345.0,417.0,698.0,345.0,534.3777777777777,561.0222222222222,498.8222222222222,249.0,321.0,326.0,577.0,760.0,609.0
0,417.0,466.0,345.0,434.0,575.0,575.0,575.0,575.0,577.0,577.0,577.0,577.0,538.0,538.0,538.0,538.0,538.0,417.0,417.0,417.0,417.0,628.0,628.0,667.0,649.0,649.0,649.0,649.0,500.0,500.0,500.0,500.0,524.0,524.0,524.0,524.0,524.0,698.0,698.0,698.0,698.0,466.0,466.0,609.0,599.0,599.0,599.0,599.0,518.0,518.0,518.0,518.0,408.0,408.0,408.0,408.0,408.0,345.0,345.0,345.0,345.0,484.0,484.0,628.0,466.0,484.0,534.1111111111111,567.6,502.15555555555557,249.0,321.0,294.0,628.0,698.0,609.0
0,417.0,413.0,345.0,575.0,577.0,577.0,577.0,577.0,538.0,538.0,538.0,538.0,538.0,417.0,417.0,417.0,417.0,628.0,628.0,628.0,628.0,521.0,521.0,649.0,500.0,500.0,500.0,500.0,524.0,524.0,524.0,524.0,524.0,698.0,698.0,698.0,698.0,466.0,466.0,466.0,466.0,413.0,413.0,599.0,518.0,518.0,518.0,518.0,408.0,408.0,408.0,408.0,408.0,345.0,345.0,345.0,345.0,484.0,484.0,484.0,484.0,368.0,368.0,521.0,413.0,368.0,543.6666666666666,563.8222222222222,494.15555555555557,226.0,347.0,294.0,628.0,698.0,599.0
0,417.0,413.0,345.0,577.0,538.0,538.0,538.0,538.0,538.0,417.0,417.0,417.0,417.0,628.0,628.0,628.0,628.0,521.0,521.0,521.0,521.0,512.0,512.0,500.0,524.0,524.0,524.0,524.0,524.0,698.0,698.0,698.0,698.0,466.0,466.0,466.0,466.0,413.0,413.0,413.0,413.0,451.0,451.0,518.0,408.0,408.0,408.0,408.0,408.0,345.0,345.0,345.0,345.0,484.0,484.0,484.0,484.0,368.0,368.0,368.0,368.0,458.0,458.0,512.0,451.0,458.0,540.3777777777777,558.7555555555556,492.64444444444445,226.0,347.0,294.0,628.0,698.0,518.0
0,417.0,238.0,345.0,538.0,538.0,417.0,417.0,417.0,417.0,628.0,628.0,628.0,628.0,521.0,521.0,521.0,521.0,512.0,512.0,512.0,512.0,494.0,494.0,524.0,524.0,698.0,698.0,698.0,698.0,466.0,466.0,466.0,466.0,413.0,413.0,413.0,413.0,451.0,451.0,451.0,451.0,238.0,238.0,408.0,408.0,345.0,345.0,345.0,345.0,484.0,484.0,484.0,484.0,368.0,368.0,368.0,368.0,458.0,458.0,458.0,458.0,590.0,590.0,494.0,238.0,590.0,531.3111111111111,542.8444444444444,497.6222222222222,226.0,522.0,270.0,628.0,698.0,590.0
0,417.0,238.0,345.0,417.0,417.0,417.0,628.0,628.0,628.0,628.0,521.0,521.0,521.0,521.0,512.0,512.0,512.0,512.0,494.0,494.0,494.0,637.0,637.0,698.0,698.0,698.0,466.0,466.0,466.0,466.0,413.0,413.0,413.0,413.0,451.0,451.0,451.0,451.0,238.0,238.0,238.0,512.0,512.0,345.0,345.0,345.0,484.0,484.0,484.0,484.0,368.0,368.0,368.0,368.0,458.0,458.0,458.0,458.0,590.0,590.0,590.0,515.0,515.0,637.0,512.0,515.0,529.8,536.4888888888889,493.2888888888889,220.0,522.0,264.0,637.0,698.0,590.0
0,452.0,238.0,368.0,628.0,628.0,628.0,521.0,521.0,521.0,521.0,512.0,512.0,512.0,512.0,494.0,494.0,494.0,637.0,637.0,637.0,637.0,452.0,452.0,466.0,466.0,466.0,413.0,413.0,413.0,413.0,451.0,451.0,451.0,451.0,238.0,238.0,238.0,512.0,512.0,512.0,512.0,449.0,449.0,484.0,484.0,484.0,368.0,368.0,368.0,368.0,458.0,458.0,458.0,458.0,590.0,590.0,590.0,515.0,515.0,515.0,515.0,443.0,443.0,452.0,449.0,443.0,529.3111111111111,531.9111111111112,483.8666666666667,220.0,522.0,264.0,637.0,512.0,590.0
0,452.0,238.0,368.0,521.0,521.0,521.0,512.0,512.0,512.0,512.0,494.0,494.0,494.0,637.0,637.0,637.0,637.0,452.0,452.0,452.0,452.0,511.0,511.0,413.0,413.0,413.0,451.0,451.0,451.0,451.0,238.0,238.0,238.0,512.0,512.0,512.0,512.0,449.0,449.0,449.0,449.0,526.0,526.0,368.0,368.0,368.0,458.0,458.0,458.0,458.0,590.0,590.0,590.0,515.0,515.0,515.0,515.0,443.0,443.0,443.0,443.0,573.0,573.0,511.0,526.0,573.0,528.2666666666667,509.75555555555553,482.2888888888889,220.0,460.0,264.0,637.0,526.0,590.0
