,emg_max_0,emg_max_1,emg_max_2,emg_0,emg_1,emg_2,emg_prev_0_0,emg_prev_0_1,emg_prev_0_2,emg_prev_0_3,emg_prev_0_4,emg_prev_0_5,emg_prev_0_6,emg_prev_0_7,emg_prev_0_8,emg_prev_0_9,emg_prev_0_10,emg_prev_0_11,emg_prev_0_12,emg_prev_0_13,emg_prev_0_14,emg_prev_0_15,emg_prev_0_16,emg_prev_0_17,emg_prev_0_18,emg_prev_0_19,emg_prev_1_0,emg_prev_1_1,emg_prev_1_2,emg_prev_1_3,emg_prev_1_4,emg_prev_1_5,emg_prev_1_6,emg_prev_1_7,emg_prev_1_8,emg_prev_1_9,emg_prev_1_10,emg_prev_1_11,emg_prev_1_12,emg_prev_1_13,emg_prev_1_14,emg_prev_1_15,emg_prev_1_16,emg_prev_1_17,emg_prev_1_18,emg_prev_1_19,emg_prev_2_0,emg_prev_2_1,emg_prev_2_2,emg_prev_2_3,emg_prev_2_4,emg_prev_2_5,emg_prev_2_6,emg_prev_2_7,emg_prev_2_8,emg_prev_2_9,emg_prev_2_10,emg_prev_2_11,emg_prev_2_12,emg_prev_2_13,emg_prev_2_14,emg_prev_2_15,emg_prev_2_16,emg_prev_2_17,emg_prev_2_18,emg_prev_2_19,emg_ampl_0,emg_ampl_1,emg_ampl_2,emg_med_0,emg_med_1,emg_med_2,emg_min_0,emg_min_1,emg_min_2
0,0.0,0.0,0.0,0.0,0.0,0.0,0.0,0.0,0.0,0.0,0.0,0.0,0.0,0.0,0.0,0.0,0.0,0.0,0.0,0.0,0.0,0.0,0.0,0.0,0.0,0.0,0.0,0.0,0.0,0.0,0.0,0.0,0.0,0.0,0.0,0.0,0.0,0.0,0.0,0.0,0.0,0.0,0.0,0.0,0.0,0.0,0.0,0.0,0.0,0.0,0.0,0.0,0.0,0.0,0.0,0.0,0.0,0.0,0.0,0.0,0.0,0.0,0.0,0.0,0.0,0.0,0.0,0.0,0.0,0.0,0.0,0.0,0.0,0.0,0.0
0,407.0,824.0,716.0,362.0,667.0,673.0,407.0,407.0,407.0,407.0,407.0,407.0,407.0,407.0,407.0,407.0,407.0,407.0,407.0,407.0,407.0,407.0,407.0,362.0,362.0,362.0,824.0,824.0,824.0,824.0,824.0,824.0,824.0,824.0,824.0,824.0,824.0,824.0,824.0,824.0,824.0,824.0,824.0,667.0,667.0,667.0,716.0,716.0,716.0,716.0,716.0,716.0,716.0,716.0,716.0,716.0,716.0,716.0,716.0,716.0,716.0,716.0,716.0,673.0,673.0,673.0,45.0,157.0,43.0,404.0,813.5333333333333,713.1333333333333,362.0,667.0,673.0
0,459.0,824.0,716.0,459.0,613.0,548.0,407.0,407.0,407.0,407.0,407.0,407.0,407.0,407.0,407.0,407.0,407.0,407.0,407.0,362.0,362.0,362.0,362.0,362.0,362.0,459.0,824.0,824.0,824.0,824.0,824.0,824.0,824.0,824.0,824.0,824.0,824.0,824.0,824.0,667.0,667.0,667.0,667.0,667.0,667.0,613.0,716.0,716.0,716.0,716.0,716.0,716.0,716.0,716.0,716.0,716.0,716.0,716.0,716.0,673.0,673.0,673.0,673.0,673.0,673.0,548.0,97.0,211.0,168.0,402.15555555555557,798.3777777777777,706.5333333333333,362.0,613.0,548.0
0,491.0,824.0,716.0,491.0,715.0,348.0,407.0,407.0,407.0,407.0,407.0,407.0,407.0,407.0,407.0,407.0,362.0,362.0,362.0,362.0,362.0,362.0,459.0,459.0,459.0,491.0,824.0,824.0,824.0,824.0,824.0,824.0,824.0,824.0,824.0,824.0,667.0,667.0,667.0,667.0,667.0,667.0,613.0,613.0,613.0,715.0,716.0,716.0,716.0,716.0,716.0,716.0,716.0,716.0,716.0,716.0,673.0,673.0,673.0,673.0,673.0,673.0,548.0,548.0,548.0,348.0,129.0,211.0,368.0,406.3333333333333,786.5777777777778,690.8888888888889,362.0,613.0,348.0
0,491.0,824.0,716.0,491.0,715.0,348.0,407.0,407.0,407.0,407.0,407.0,407.0,407.0,362.0,362.0,362.0,362.0,362.0,459.0,459.0,459.0,491.0,491.0,491.0,491.0,500.0,824.0,824.0,824.0,824.0,824.0,824.0,824.0,667.0,667.0,667.0,667.0,667.0,613.0,613.0,613.0,715.0,715.0,715.0,715.0,676.0,716.0,716.0,716.0,716.0,716.0,716.0,716.0,673.0,673.0,673.0,673.0,673.0,548.0,548.0,548.0,348.0,348.0,348.0,348.0,572.0,129.0,211.0,368.0,411.93333333333334,779.3111111111111,666.3555555555556,362.0,613.0,348.0
0,552.0,824.0,716.0,552.0,572.0,629.0,407.0,407.0,407.0,362.0,362.0,362.0,362.0,362.0,362.0,459.0,459.0,459.0,491.0,491.0,491.0,500.0,500.0,500.0,552.0,552.0,824.0,824.0,824.0,667.0,667.0,667.0,667.0,667.0,667.0,613.0,613.0,613.0,715.0,715.0,715.0,676.0,676.0,676.0,572.0,572.0,716.0,716.0,716.0,673.0,673.0,673.0,673.0,673.0,673.0,548.0,548.0,548.0,348.0,348.0,348.0,572.0,572.0,572.0,629.0,629.0,190.0,252.0,368.0,421.35555555555555,763.8444444444444,654.8222222222222,362.0,572.0,348.0
0,552.0,715.0,673.0,489.0,394.0,646.0,362.0,362.0,362.0,362.0,362.0,459.0,459.0,459.0,491.0,491.0,491.0,491.0,500.0,500.0,500.0,552.0,552.0,552.0,552.0,489.0,667.0,667.0,667.0,667.0,667.0,613.0,613.0,613.0,715.0,715.0,715.0,715.0,676.0,676.0,676.0,572.0,572.0,572.0,572.0,394.0,673.0,673.0,673.0,673.0,673.0,548.0,548.0,548.0,348.0,348.0,348.0,348.0,572.0,572.0,572.0,629.0,629.0,629.0,629.0,646.0,190.0,430.0,368.0,432.84444444444443,737.4888888888889,647.4666666666667,362.0,394.0,348.0
0,628.0,715.0,646.0,628.0,455.0,539.0,459.0,459.0,459.0,491.0,491.0,491.0,491.0,500.0,500.0,500.0,552.0,552.0,552.0,552.0,489.0,489.0,489.0,489.0,489.0,628.0,613.0,613.0,613.0,715.0,715.0,715.0,715.0,676.0,676.0,676.0,572.0,572.0,572.0,572.0,394.0,394.0,394.0,394.0,394.0,455.0,548.0,548.0,548.0,348.0,348.0,348.0,348.0,572.0,572.0,572.0,629.0,629.0,629.0,629.0,646.0,646.0,646.0,646.0,646.0,539.0,266.0,430.0,368.0,445.0444444444444,691.0666666666667,637.3111111111111,459.0,394.0,348.0
0,628.0,715.0,646.0,628.0,455.0,539.0,491.0,491.0,491.0,500.0,500.0,500.0,552.0,552.0,552.0,552.0,489.0,489.0,489.0,489.0,489.0,628.0,628.0,628.0,628.0,628.0,715.0,715.0,715.0,676.0,676.0,676.0,572.0,572.0,572.0,572.0,394.0,394.0,394.0,394.0,394.0,455.0,455.0,455.0,455.0,455.0,348.0,348.0,348.0,572.0,572.0,572.0,629.0,629.0,629.0,629.0,646.0,646.0,646.0,646.0,646.0,539.0,539.0,539.0,539.0,539.0,266.0,430.0,368.0,464.68888888888887,658.2666666666667,621.5777777777778,489.0,394.0,348.0
0,628.0,676.0,688.0,525.0,664.0,688.0,500.0,552.0,552.0,552.0,552.0,489.0,489.0,489.0,489.0,489.0,628.0,628.0,628.0,628.0,628.0,525.0,525.0,525.0,525.0,525.0,676.0,572.0,572.0,572.0,572.0,394.0,394.0,394.0,394.0,394.0,455.0,455.0,455.0,455.0,455.0,664.0,664.0,664.0,664.0,664.0,572.0,629.0,629.0,629.0,629.0,646.0,646.0,646.0,646.0,646.0,539.0,539.0,539.0,539.0,539.0,688.0,688.0,688.0,688.0,688.0,266.0,430.0,368.0,477.8,640.4888888888889,618.4666666666667,489.0,394.0,539.0
0,649.0,664.0,688.0,537.0,532.0,601.0,489.0,489.0,489.0,489.0,489.0,628.0,628.0,628.0,628.0,628.0,525.0,525.0,525.0,525.0,525.0,649.0,649.0,649.0,649.0,537.0,394.0,394.0,394.0,394.0,394.0,455.0,455.0,455.0,455.0,455.0,664.0,664.0,664.0,664.0,664.0,655.0,655.0,655.0,655.0,532.0,646.0,646.0,646.0,646.0,646.0,539.0,539.0,539.0,539.0,539.0,688.0,688.0,688.0,688.0,688.0,632.0,632.0,632.0,632.0,601.0,287.0,430.0,368.0,502.2,618.9777777777778,608.4444444444445,489.0,394.0,539.0
0,649.0,664.0,688.0,524.0,554.0,561.0,628.0,628.0,628.0,628.0,628.0,525.0,525.0,525.0,525.0,649.0,649.0,649.0,649.0,537.0,537.0,537.0,537.0,537.0,524.0,524.0,455.0,455.0,455.0,455.0,455.0,664.0,664.0,664.0,664.0,655.0,655.0,655.0,655.0,532.0,532.0,532.0,532.0,532.0,554.0,554.0,539.0,539.0,539.0,539.0,539.0,688.0,688.0,688.0,688.0,632.0,632.0,632.0,632.0,601.0,601.0,601.0,601.0,601.0,561.0,561.0,287.0,321.0,340.0,516.3555555555556,587.0222222222222,594.7777777777778,524.0,455.0,539.0
0,649.0,664.0,688.0,554.0,558.0,524.0,525.0,525.0,525.0,525.0,525.0,649.0,649.0,649.0,649.0,537.0,537.0,537.0,537.0,537.0,524.0,524.0,524.0,524.0,524.0,554.0,664.0,664.0,664.0,664.0,664.0,655.0,655.0,655.0,655.0,532.0,532.0,532.0,532.0,532.0,554.0,554.0,554.0,554.0,554.0,558.0,688.0,688.0,688.0,688.0,688.0,632.0,632.0,632.0,632.0,601.0,601.0,601.0,601.0,601.0,561.0,561.0,561.0,561.0,561.0,524.0,287.0,321.0,340.0,535.0222222222222,574.5555555555555,581.5111111111111,524.0,532.0,524.0
0,649.0,655.0,632.0,517.0,595.0,628.0,649.0,649.0,649.0,537.0,537.0,537.0,537.0,537.0,524.0,524.0,524.0,524.0,524.0,554.0,554.0,554.0,554.0,554.0,517.0,517.0,655.0,655.0,655.0,532.0,532.0,532.0,532.0,532.0,554.0,554.0,554.0,554.0,554.0,558.0,558.0,558.0,558.0,558.0,595.0,595.0,632.0,632.0,632.0,601.0,601.0,601.0,601.0,601.0,561.0,561.0,561.0,561.0,561.0,524.0,524.0,524.0,524.0,524.0,628.0,628.0,160.0,321.0,340.0,546.7777777777778,563.1333333333333,589.0444444444445,517.0,532.0,524.0
0,554.0,695.0,628.0,498.0,695.0,622.0,537.0,537.0,537.0,537.0,524.0,524.0,524.0,524.0,524.0,554.0,554.0,554.0,554.0,554.0,517.0,517.0,517.0,517.0,517.0,498.0,532.0,532.0,532.0,532.0,554.0,554.0,554.0,554.0,554.0,558.0,558.0,558.0,558.0,558.0,595.0,595.0,595.0,595.0,595.0,695.0,601.0,601.0,601.0,601.0,561.0,561.0,561.0,561.0,561.0,524.0,524.0,524.0,524.0,524.0,628.0,628.0,628.0,628.0,628.0,622.0,160.0,301.0,164.0,548.2666666666667,556.4222222222222,603.8444444444444,498.0,532.0,524.0
0,554.0,695.0,634.0,546.0,652.0,634.0,524.0,524.0,524.0,524.0,524.0,554.0,554.0,554.0,554.0,554.0,517.0,517.0,517.0,517.0,517.0,498.0,498.0,498.0,498.0,546.0,554.0,554.0,554.0,554.0,554.0,558.0,558.0,558.0,558.0,558.0,595.0,595.0,595.0,595.0,595.0,695.0,695.0,695.0,695.0,652.0,561.0,561.0,561.0,561.0,561.0,524.0,524.0,524.0,524.0,524.0,628.0,628.0,628.0,628.0,628.0,622.0,622.0,622.0,622.0,634.0,160.0,301.0,164.0,545.6888888888889,564.0888888888888,604.7555555555556,498.0,554.0,524.0
0,554.0,695.0,694.0,534.0,569.0,694.0,524.0,554.0,554.0,554.0,554.0,554.0,517.0,517.0,517.0,517.0,517.0,498.0,498.0,498.0,498.0,546.0,546.0,546.0,534.0,534.0,554.0,558.0,558.0,558.0,558.0,558.0,595.0,595.0,595.0,595.0,595.0,695.0,695.0,695.0,695.0,652.0,652.0,652.0,569.0,569.0,561.0,524.0,524.0,524.0,524.0,524.0,628.0,628.0,628.0,628.0,628.0,622.0,622.0,622.0,622.0,634.0,634.0,634.0,694.0,694.0,160.0,301.0,170.0,548.8222222222222,579.3777777777777,606.7333333333333,498.0,554.0,524.0
0,554.0,695.0,694.0,531.0,573.0,642.0,554.0,554.0,517.0,517.0,517.0,517.0,517.0,498.0,498.0,498.0,498.0,546.0,546.0,546.0,534.0,534.0,534.0,534.0,531.0,531.0,558.0,558.0,595.0,595.0,595.0,595.0,595.0,695.0,695.0,695.0,695.0,652.0,652.0,652.0,569.0,569.0,569.0,569.0,573.0,573.0,524.0,524.0,628.0,628.0,628.0,628.0,628.0,622.0,622.0,622.0,622.0,634.0,634.0,634.0,694.0,694.0,694.0,694.0,642.0,642.0,151.0,240.0,170.0,546.5111111111111,592.4,613.4444444444445,498.0,558.0,524.0
0,648.0,695.0,694.0,648.0,636.0,603.0,517.0,517.0,517.0,498.0,498.0,498.0,546.0,546.0,546.0,534.0,534.0,534.0,534.0,531.0,531.0,531.0,531.0,531.0,648.0,648.0,595.0,595.0,595.0,695.0,695.0,695.0,652.0,652.0,652.0,569.0,569.0,569.0,569.0,573.0,573.0,573.0,573.0,573.0,636.0,636.0,628.0,628.0,628.0,622.0,622.0,622.0,634.0,634.0,634.0,694.0,694.0,694.0,694.0,642.0,642.0,642.0,642.0,642.0,603.0,603.0,151.0,163.0,170.0,542.7777777777778,599.6444444444444,618.4222222222222,498.0,569.0,603.0
0,648.0,719.0,694.0,434.0,719.0,509.0,498.0,546.0,546.0,546.0,534.0,534.0,534.0,534.0,531.0,531.0,531.0,531.0,531.0,648.0,648.0,648.0,648.0,648.0,434.0,434.0,695.0,652.0,652.0,652.0,569.0,569.0,569.0,569.0,573.0,573.0,573.0,573.0,573.0,636.0,636.0,636.0,636.0,636.0,719.0,719.0,622.0,634.0,634.0,634.0,694.0,694.0,694.0,694.0,642.0,642.0,642.0,642.0,642.0,603.0,603.0,603.0,603.0,603.0,509.0,509.0,215.0,187.0,185.0,544.1555555555556,600.0,605.4,434.0,569.0,509.0
0,648.0,719.0,694.0,506.0,712.0,654.0,534.0,534.0,534.0,534.0,531.0,531.0,531.0,531.0,531.0,648.0,648.0,648.0,648.0,648.0,434.0,434.0,434.0,434.0,434.0,506.0,569.0,569.0,569.0,569.0,573.0,573.0,573.0,573.0,573.0,636.0,636.0,636.0,636.0,636.0,719.0,719.0,719.0,719.0,719.0,712.0,694.0,694.0,694.0,694.0,642.0,642.0,642.0,642.0,642.0,603.0,603.0,603.0,603.0,603.0,509.0,509.0,509.0,509.0,509.0,654.0,214.0,187.0,185.0,531.6222222222223,611.0,599.0666666666667,434.0,569.0,509.0
0,648.0,719.0,699.0,537.0,605.0,699.0,531.0,531.0,531.0,648.0,648.0,648.0,648.0,648.0,434.0,434.0,434.0,434.0,434.0,506.0,506.0,506.0,506.0,506.0,506.0,537.0,573.0,573.0,573.0,636.0,636.0,636.0,636.0,636.0,719.0,719.0,719.0,719.0,719.0,712.0,712.0,712.0,712.0,712.0,712.0,605.0,642.0,642.0,642.0,603.0,603.0,603.0,603.0,603.0,509.0,509.0,509.0,509.0,509.0,654.0,654.0,654.0,654.0,654.0,654.0,699.0,214.0,165.0,190.0,529.0444444444445,631.1555555555556,609.8,434.0,573.0,509.0
0,648.0,719.0,699.0,537.0,605.0,699.0,648.0,648.0,648.0,648.0,434.0,434.0,434.0,434.0,434.0,506.0,506.0,506.0,506.0,506.0,506.0,537.0,537.0,537.0,537.0,537.0,636.0,636.0,636.0,636.0,719.0,719.0,719.0,719.0,719.0,712.0,712.0,712.0,712.0,712.0,712.0,605.0,605.0,605.0,605.0,605.0,603.0,603.0,603.0,603.0,509.0,509.0,509.0,509.0,509.0,654.0,654.0,654.0,654.0,654.0,654.0,699.0,699.0,699.0,699.0,699.0,214.0,161.0,190.0,528.8666666666667,635.5111111111111,623.7111111111111,434.0,605.0,509.0
0,537.0,719.0,699.0,513.0,539.0,473.0,434.0,434.0,434.0,434.0,506.0,506.0,506.0,506.0,506.0,506.0,537.0,537.0,537.0,537.0,537.0,506.0,506.0,506.0,506.0,513.0,719.0,719.0,719.0,719.0,712.0,712.0,712.0,712.0,712.0,712.0,605.0,605.0,605.0,605.0,605.0,591.0,591.0,591.0,591.0,539.0,509.0,509.0,509.0,509.0,654.0,654.0,654.0,654.0,654.0,654.0,699.0,699.0,699.0,699.0,699.0,610.0,610.0,610.0,610.0,473.0,214.0,180.0,226.0,525.3333333333334,636.3777777777777,625.6,434.0,539.0,473.0
0,537.0,712.0,751.0,431.0,545.0,751.0,506.0,506.0,506.0,506.0,506.0,506.0,537.0,537.0,537.0,537.0,537.0,506.0,506.0,506.0,506.0,513.0,513.0,513.0,431.0,431.0,712.0,712.0,712.0,712.0,712.0,712.0,605.0,605.0,605.0,605.0,605.0,591.0,591.0,591.0,591.0,539.0,539.0,539.0,545.0,545.0,654.0,654.0,654.0,654.0,654.0,654.0,699.0,699.0,699.0,699.0,699.0,610.0,610.0,610.0,610.0,473.0,473.0,473.0,751.0,751.0,217.0,180.0,278.0,521.7555555555556,629.4444444444445,624.3111111111111,431.0,539.0,473.0
0,537.0,712.0,751.0,498.0,563.0,669.0,506.0,506.0,537.0,537.0,537.0,537.0,537.0,506.0,506.0,506.0,506.0,513.0,513.0,513.0,431.0,431.0,431.0,431.0,498.0,498.0,712.0,712.0,605.0,605.0,605.0,605.0,605.0,591.0,591.0,591.0,591.0,539.0,539.0,539.0,545.0,545.0,545.0,545.0,563.0,563.0,654.0,654.0,699.0,699.0,699.0,699.0,699.0,610.0,610.0,610.0,610.0,473.0,473.0,473.0,751.0,751.0,751.0,751.0,669.0,669.0,217.0,180.0,278.0,517.7111111111111,617.8666666666667,631.8666666666667,431.0,539.0,473.0
0,537.0,605.0,751.0,533.0,381.0,610.0,537.0,537.0,506.0,506.0,506.0,506.0,513.0,513.0,513.0,431.0,431.0,431.0,431.0,498.0,498.0,498.0,498.0,498.0,533.0,533.0,605.0,605.0,591.0,591.0,591.0,591.0,539.0,539.0,539.0,545.0,545.0,545.0,545.0,563.0,563.0,563.0,563.0,563.0,381.0,381.0,699.0,699.0,610.0,610.0,610.0,610.0,473.0,473.0,473.0,751.0,751.0,751.0,751.0,669.0,669.0,669.0,669.0,669.0,610.0,610.0,217.0,338.0,278.0,514.7333333333333,605.4222222222222,629.1333333333333,431.0,381.0,473.0
0,533.0,591.0,751.0,496.0,496.0,281.0,506.0,506.0,506.0,513.0,513.0,513.0,431.0,431.0,431.0,431.0,498.0,498.0,498.0,498.0,498.0,533.0,533.0,533.0,496.0,496.0,591.0,591.0,591.0,539.0,539.0,539.0,545.0,545.0,545.0,545.0,563.0,563.0,563.0,563.0,563.0,381.0,381.0,381.0,496.0,496.0,610.0,610.0,610.0,473.0,473.0,473.0,751.0,751.0,751.0,751.0,669.0,669.0,669.0,669.0,669.0,610.0,610.0,610.0,281.0,281.0,217.0,338.0,470.0,513.1555555555556,597.8222222222222,611.2222222222222,431.0,381.0,281.0
0,533.0,591.0,751.0,476.0,424.0,642.0,506.0,513.0,513.0,513.0,431.0,431.0,431.0,431.0,498.0,498.0,498.0,498.0,498.0,533.0,533.0,533.0,496.0,496.0,496.0,476.0,591.0,539.0,539.0,539.0,545.0,545.0,545.0,545.0,563.0,563.0,563.0,563.0,563.0,381.0,381.0,381.0,496.0,496.0,496.0,424.0,610.0,473.0,473.0,473.0,751.0,751.0,751.0,751.0,669.0,669.0,669.0,669.0,669.0,610.0,610.0,610.0,281.0,281.0,281.0,642.0,217.0,338.0,470.0,511.15555555555557,592.8,603.2,431.0,381.0,281.0
0,533.0,563.0,751.0,528.0,427.0,639.0,431.0,431.0,431.0,498.0,498.0,498.0,498.0,498.0,533.0,533.0,533.0,496.0,496.0,496.0,476.0,476.0,476.0,476.0,528.0,528.0,545.0,545.0,545.0,563.0,563.0,563.0,563.0,563.0,381.0,381.0,381.0,496.0,496.0,496.0,424.0,424.0,424.0,424.0,427.0,427.0,751.0,751.0,751.0,669.0,669.0,669.0,669.0,669.0,610.0,610.0,610.0,281.0,281.0,281.0,642.0,642.0,642.0,642.0,639.0,639.0,217.0,338.0,470.0,499.6222222222222,570.7777777777778,606.5333333333333,431.0,381.0,281.0
0,572.0,563.0,669.0,572.0,326.0,547.0,498.0,498.0,498.0,498.0,533.0,533.0,533.0,496.0,496.0,496.0,476.0,476.0,476.0,476.0,528.0,528.0,528.0,528.0,572.0,572.0,563.0,563.0,563.0,563.0,381.0,381.0,381.0,496.0,496.0,496.0,424.0,424.0,424.0,424.0,427.0,427.0,427.0,427.0,326.0,326.0,669.0,669.0,669.0,669.0,610.0,610.0,610.0,281.0,281.0,281.0,642.0,642.0,642.0,642.0,639.0,639.0,639.0,639.0,547.0,547.0,141.0,393.0,470.0,502.5111111111111,542.1777777777778,611.9111111111112,476.0,326.0,281.0
0,589.0,496.0,642.0,589.0,352.0,537.0,533.0,533.0,533.0,496.0,496.0,496.0,476.0,476.0,476.0,476.0,528.0,528.0,528.0,528.0,572.0,572.0,572.0,572.0,589.0,589.0,381.0,381.0,381.0,496.0,496.0,496.0,424.0,424.0,424.0,424.0,427.0,427.0,427.0,427.0,326.0,326.0,326.0,326.0,352.0,352.0,610.0,610.0,610.0,281.0,281.0,281.0,642.0,642.0,642.0,642.0,639.0,639.0,639.0,639.0,547.0,547.0,547.0,547.0,537.0,537.0,158.0,386.0,470.0,512.3333333333334,508.7111111111111,608.4,476.0,326.0,281.0
0,589.0,496.0,642.0,532.0,392.0,588.0,496.0,496.0,496.0,476.0,476.0,476.0,476.0,528.0,528.0,528.0,528.0,572.0,572.0,572.0,572.0,589.0,589.0,589.0,532.0,532.0,496.0,496.0,496.0,424.0,424.0,424.0,424.0,427.0,427.0,427.0,427.0,326.0,326.0,326.0,326.0,352.0,352.0,352.0,392.0,392.0,281.0,281.0,281.0,642.0,642.0,642.0,642.0,639.0,639.0,639.0,639.0,547.0,547.0,547.0,547.0,537.0,537.0,537.0,588.0,588.0,158.0,386.0,470.0,516.6,485.6,601.7333333333333,476.0,326.0,281.0
0,589.0,491.0,642.0,497.0,491.0,595.0,476.0,476.0,528.0,528.0,528.0,528.0,572.0,572.0,572.0,572.0,589.0,589.0,589.0,589.0,532.0,532.0,532.0,497.0,497.0,497.0,424.0,424.0,427.0,427.0,427.0,427.0,326.0,326.0,326.0,326.0,352.0,352.0,352.0,352.0,392.0,392.0,392.0,491.0,491.0,491.0,642.0,642.0,639.0,639.0,639.0,639.0,547.0,547.0,547.0,547.0,537.0,537.0,537.0,537.0,588.0,588.0,588.0,595.0,595.0,595.0,158.0,279.0,470.0,514.4,466.15555555555557,590.8666666666667,476.0,326.0,537.0
0,589.0,491.0,639.0,437.0,490.0,566.0,528.0,528.0,528.0,572.0,572.0,572.0,572.0,589.0,589.0,589.0,589.0,532.0,532.0,532.0,497.0,497.0,497.0,497.0,437.0,437.0,427.0,427.0,427.0,326.0,326.0,326.0,326.0,352.0,352.0,352.0,352.0,392.0,392.0,392.0,491.0,491.0,491.0,491.0,490.0,490.0,639.0,639.0,639.0,547.0,547.0,547.0,547.0,537.0,537.0,537.0,537.0,588.0,588.0,588.0,595.0,595.0,595.0,595.0,566.0,566.0,158.0,265.0,470.0,510.44444444444446,459.1333333333333,586.6,437.0,326.0,537.0
0,589.0,496.0,595.0,575.0,496.0,438.0,572.0,572.0,572.0,589.0,589.0,589.0,589.0,532.0,532.0,532.0,497.0,497.0,497.0,497.0,437.0,437.0,437.0,437.0,575.0,575.0,326.0,326.0,326.0,352.0,352.0,352.0,352.0,392.0,392.0,392.0,491.0,491.0,491.0,491.0,490.0,490.0,490.0,490.0,496.0,496.0,547.0,547.0,547.0,537.0,537.0,537.0,537.0,588.0,588.0,588.0,595.0,595.0,595.0,595.0,566.0,566.0,566.0,566.0,438.0,438.0,158.0,237.0,470.0,510.1333333333333,452.73333333333335,583.0888888888888,437.0,326.0,438.0
0,589.0,528.0,595.0,545.0,528.0,360.0,589.0,589.0,589.0,589.0,532.0,532.0,532.0,497.0,497.0,497.0,497.0,437.0,437.0,437.0,437.0,575.0,575.0,575.0,575.0,545.0,352.0,352.0,352.0,352.0,392.0,392.0,392.0,491.0,491.0,491.0,491.0,490.0,490.0,490.0,490.0,496.0,496.0,496.0,496.0,528.0,537.0,537.0,537.0,537.0,588.0,588.0,588.0,595.0,595.0,595.0,595.0,566.0,566.0,566.0,566.0,438.0,438.0,438.0,360.0,360.0,158.0,237.0,470.0,517.2444444444444,450.31111111111113,566.6666666666666,437.0,352.0,360.0
0,575.0,653.0,619.0,467.0,653.0,619.0,532.0,532.0,532.0,497.0,497.0,497.0,437.0,437.0,437.0,437.0,575.0,575.0,575.0,575.0,545.0,545.0,545.0,545.0,467.0,467.0,392.0,392.0,392.0,491.0,491.0,491.0,490.0,490.0,490.0,490.0,496.0,496.0,496.0,496.0,528.0,528.0,528.0,528.0,653.0,653.0,588.0,588.0,588.0,595.0,595.0,595.0,566.0,566.0,566.0,566.0,438.0,438.0,438.0,438.0,360.0,360.0,360.0,360.0,619.0,619.0,152.0,327.0,388.0,522.6666666666666,450.77777777777777,541.3111111111111,437.0,392.0,360.0
0,575.0,653.0,619.0,495.0,582.0,596.0,497.0,497.0,497.0,437.0,437.0,437.0,437.0,575.0,575.0,575.0,575.0,545.0,545.0,545.0,545.0,467.0,467.0,467.0,467.0,495.0,491.0,491.0,491.0,490.0,490.0,490.0,490.0,496.0,496.0,496.0,496.0,528.0,528.0,528.0,528.0,653.0,653.0,653.0,582.0,582.0,595.0,595.0,595.0,566.0,566.0,566.0,566.0,438.0,438.0,438.0,438.0,360.0,360.0,360.0,360.0,619.0,619.0,619.0,596.0,596.0,152.0,327.0,361.0,519.7555555555556,461.24444444444447,537.6666666666666,437.0,490.0,360.0
0,575.0,705.0,619.0,557.0,705.0,596.0,437.0,437.0,575.0,575.0,575.0,575.0,545.0,545.0,545.0,545.0,467.0,467.0,467.0,467.0,495.0,495.0,495.0,495.0,557.0,557.0,490.0,490.0,496.0,496.0,496.0,496.0,528.0,528.0,528.0,528.0,653.0,653.0,653.0,653.0,582.0,582.0,582.0,582.0,705.0,705.0,566.0,566.0,438.0,438.0,438.0,438.0,360.0,360.0,360.0,360.0,619.0,619.0,619.0,619.0,596.0,596.0,596.0,596.0,596.0,596.0,152.0,379.0,282.0,520.7555555555556,481.3777777777778,558.0444444444445,437.0,490.0,360.0
0,575.0,705.0,619.0,464.0,680.0,490.0,575.0,575.0,575.0,545.0,545.0,545.0,545.0,467.0,467.0,467.0,467.0,495.0,495.0,495.0,495.0,557.0,557.0,557.0,557.0,464.0,496.0,496.0,496.0,528.0,528.0,528.0,528.0,653.0,653.0,653.0,653.0,582.0,582.0,582.0,582.0,705.0,705.0,705.0,705.0,680.0,438.0,438.0,438.0,360.0,360.0,360.0,360.0,619.0,619.0,619.0,619.0,596.0,596.0,596.0,596.0,596.0,596.0,596.0,596.0,490.0,152.0,379.0,282.0,524.0888888888888,499.55555555555554,552.6222222222223,464.0,496.0,360.0
0,557.0,705.0,720.0,472.0,511.0,720.0,545.0,545.0,545.0,467.0,467.0,467.0,467.0,495.0,495.0,495.0,495.0,557.0,557.0,557.0,557.0,464.0,464.0,464.0,472.0,472.0,528.0,528.0,528.0,653.0,653.0,653.0,653.0,582.0,582.0,582.0,582.0,705.0,705.0,705.0,705.0,680.0,680.0,680.0,511.0,511.0,360.0,360.0,360.0,619.0,619.0,619.0,619.0,596.0,596.0,596.0,596.0,596.0,596.0,596.0,596.0,490.0,490.0,490.0,720.0,720.0,152.0,379.0,360.0,519.9111111111112,514.6,549.5333333333333,464.0,511.0,360.0
0,557.0,705.0,720.0,517.0,591.0,559.0,467.0,467.0,467.0,495.0,495.0,495.0,495.0,557.0,557.0,557.0,557.0,464.0,464.0,464.0,472.0,472.0,472.0,472.0,517.0,517.0,653.0,653.0,653.0,582.0,582.0,582.0,582.0,705.0,705.0,705.0,705.0,680.0,680.0,680.0,511.0,511.0,511.0,511.0,591.0,591.0,619.0,619.0,619.0,596.0,596.0,596.0,596.0,596.0,596.0,596.0,596.0,490.0,490.0,490.0,720.0,720.0,720.0,720.0,559.0,559.0,152.0,379.0,360.0,514.0,532.3555555555556,555.7111111111111,464.0,511.0,490.0
0,557.0,705.0,720.0,547.0,486.0,707.0,495.0,495.0,495.0,495.0,557.0,557.0,557.0,557.0,464.0,464.0,464.0,472.0,472.0,472.0,472.0,517.0,517.0,517.0,517.0,547.0,582.0,582.0,582.0,582.0,705.0,705.0,705.0,705.0,680.0,680.0,680.0,511.0,511.0,511.0,511.0,591.0,591.0,591.0,591.0,486.0,596.0,596.0,596.0,596.0,596.0,596.0,596.0,596.0,490.0,490.0,490.0,720.0,720.0,720.0,720.0,559.0,559.0,559.0,707.0,707.0,152.0,353.0,360.0,510.24444444444447,546.5333333333333,560.2444444444444,464.0,486.0,490.0
0,557.0,705.0,720.0,512.0,590.0,630.0,557.0,557.0,557.0,464.0,464.0,464.0,472.0,472.0,472.0,472.0,517.0,517.0,517.0,517.0,547.0,547.0,547.0,547.0,512.0,512.0,705.0,705.0,705.0,680.0,680.0,680.0,511.0,511.0,511.0,511.0,591.0,591.0,591.0,591.0,486.0,486.0,486.0,486.0,590.0,590.0,596.0,596.0,596.0,490.0,490.0,490.0,720.0,720.0,720.0,720.0,559.0,559.0,559.0,559.0,707.0,707.0,707.0,707.0,630.0,630.0,138.0,219.0,360.0,507.8222222222222,563.3777777777777,572.3111111111111,464.0,486.0,490.0
0,547.0,680.0,720.0,468.0,480.0,647.0,464.0,464.0,472.0,472.0,472.0,472.0,517.0,517.0,517.0,517.0,547.0,547.0,547.0,547.0,512.0,512.0,512.0,512.0,468.0,468.0,680.0,680.0,511.0,511.0,511.0,511.0,591.0,591.0,591.0,591.0,486.0,486.0,486.0,486.0,590.0,590.0,590.0,590.0,480.0,480.0,490.0,490.0,720.0,720.0,720.0,720.0,559.0,559.0,559.0,559.0,707.0,707.0,707.0,707.0,630.0,630.0,630.0,630.0,647.0,647.0,138.0,225.0,360.0,507.2,567.2888888888889,576.1777777777778,464.0,480.0,490.0
0,547.0,591.0,720.0,466.0,548.0,532.0,472.0,472.0,517.0,517.0,517.0,517.0,547.0,547.0,547.0,547.0,512.0,512.0,512.0,512.0,468.0,468.0,468.0,466.0,466.0,466.0,511.0,511.0,591.0,591.0,591.0,591.0,486.0,486.0,486.0,486.0,590.0,590.0,590.0,590.0,480.0,480.0,480.0,548.0,548.0,548.0,720.0,720.0,559.0,559.0,559.0,559.0,707.0,707.0,707.0,707.0,630.0,630.0,630.0,630.0,647.0,647.0,647.0,532.0,532.0,532.0,111.0,225.0,360.0,509.8666666666667,569.4222222222222,578.2666666666667,466.0,480.0,532.0
0,547.0,591.0,707.0,466.0,562.0,676.0,517.0,517.0,547.0,547.0,547.0,547.0,512.0,512.0,512.0,512.0,468.0,468.0,468.0,468.0,466.0,466.0,466.0,466.0,466.0,466.0,591.0,591.0,486.0,486.0,486.0,486.0,590.0,590.0,590.0,590.0,480.0,480.0,480.0,480.0,548.0,548.0,548.0,548.0,548.0,562.0,559.0,559.0,707.0,707.0,707.0,707.0,630.0,630.0,630.0,630.0,647.0,647.0,647.0,647.0,532.0,532.0,532.0,532.0,532.0,676.0,93.0,225.0,360.0,500.1777777777778,574.3555555555556,589.8222222222222,466.0,480.0,532.0
0,547.0,590.0,707.0,534.0,501.0,658.0,547.0,547.0,512.0,512.0,512.0,512.0,468.0,468.0,468.0,468.0,466.0,466.0,466.0,466.0,466.0,466.0,466.0,466.0,466.0,534.0,486.0,486.0,590.0,590.0,590.0,590.0,480.0,480.0,480.0,480.0,548.0,548.0,548.0,548.0,548.0,562.0,562.0,562.0,562.0,501.0,707.0,707.0,630.0,630.0,630.0,630.0,647.0,647.0,647.0,647.0,532.0,532.0,532.0,532.0,532.0,676.0,676.0,676.0,676.0,658.0,93.0,225.0,230.0,494.6666666666667,576.0222222222222,617.5111111111111,466.0,480.0,532.0
0,534.0,590.0,676.0,521.0,484.0,527.0,512.0,468.0,468.0,468.0,468.0,466.0,466.0,466.0,466.0,466.0,466.0,466.0,466.0,466.0,534.0,534.0,534.0,534.0,521.0,521.0,590.0,480.0,480.0,480.0,480.0,548.0,548.0,548.0,548.0,548.0,562.0,562.0,562.0,562.0,501.0,501.0,501.0,501.0,484.0,484.0,630.0,647.0,647.0,647.0,647.0,532.0,532.0,532.0,532.0,532.0,676.0,676.0,676.0,676.0,658.0,658.0,658.0,658.0,527.0,527.0,93.0,225.0,230.0,500.9111111111111,559.9555555555555,616.5333333333333,466.0,480.0,527.0
0,534.0,562.0,676.0,509.0,333.0,543.0,468.0,468.0,466.0,466.0,466.0,466.0,466.0,466.0,466.0,466.0,466.0,534.0,534.0,534.0,534.0,521.0,521.0,521.0,509.0,509.0,480.0,480.0,548.0,548.0,548.0,548.0,548.0,562.0,562.0,562.0,562.0,501.0,501.0,501.0,501.0,484.0,484.0,484.0,333.0,333.0,647.0,647.0,532.0,532.0,532.0,532.0,532.0,676.0,676.0,676.0,676.0,658.0,658.0,658.0,658.0,527.0,527.0,527.0,543.0,543.0,93.0,372.0,230.0,502.1111111111111,546.7111111111111,612.6444444444444,466.0,333.0,527.0
0,534.0,562.0,676.0,514.0,391.0,547.0,466.0,466.0,466.0,466.0,466.0,466.0,466.0,534.0,534.0,534.0,534.0,521.0,521.0,521.0,509.0,509.0,509.0,509.0,514.0,514.0,548.0,548.0,548.0,562.0,562.0,562.0,562.0,501.0,501.0,501.0,501.0,484.0,484.0,484.0,333.0,333.0,333.0,333.0,391.0,391.0,532.0,532.0,532.0,676.0,676.0,676.0,676.0,658.0,658.0,658.0,658.0,527.0,527.0,527.0,543.0,543.0,543.0,543.0,547.0,547.0,83.0,347.0,230.0,498.06666666666666,516.2222222222222,608.1111111111111,466.0,333.0,527.0
0,641.0,562.0,676.0,641.0,469.0,573.0,466.0,466.0,466.0,534.0,534.0,534.0,534.0,521.0,521.0,521.0,509.0,509.0,509.0,509.0,514.0,514.0,514.0,514.0,641.0,641.0,562.0,562.0,562.0,501.0,501.0,501.0,501.0,484.0,484.0,484.0,333.0,333.0,333.0,333.0,391.0,391.0,391.0,391.0,469.0,469.0,676.0,676.0,676.0,658.0,658.0,658.0,658.0,527.0,527.0,527.0,543.0,543.0,543.0,543.0,547.0,547.0,547.0,547.0,573.0,573.0,175.0,258.0,193.0,507.97777777777776,497.75555555555553,609.2222222222222,466.0,333.0,527.0
0,641.0,501.0,658.0,549.0,448.0,527.0,534.0,534.0,534.0,521.0,521.0,521.0,509.0,509.0,509.0,509.0,514.0,514.0,514.0,514.0,641.0,641.0,641.0,641.0,549.0,549.0,501.0,501.0,501.0,484.0,484.0,484.0,333.0,333.0,333.0,333.0,391.0,391.0,391.0,391.0,469.0,469.0,469.0,469.0,448.0,448.0,658.0,658.0,658.0,527.0,527.0,527.0,543.0,543.0,543.0,543.0,547.0,547.0,547.0,547.0,573.0,573.0,573.0,573.0,527.0,527.0,175.0,258.0,180.0,517.9111111111112,491.31111111111113,597.6888888888889,509.0,333.0,527.0
0,641.0,490.0,573.0,378.0,490.0,511.0,521.0,521.0,521.0,509.0,509.0,509.0,509.0,514.0,514.0,514.0,514.0,641.0,641.0,641.0,641.0,549.0,549.0,549.0,378.0,378.0,484.0,484.0,484.0,333.0,333.0,333.0,333.0,391.0,391.0,391.0,391.0,469.0,469.0,469.0,469.0,448.0,448.0,448.0,490.0,490.0,527.0,527.0,527.0,543.0,543.0,543.0,543.0,547.0,547.0,547.0,547.0,573.0,573.0,573.0,573.0,527.0,527.0,527.0,511.0,511.0,263.0,257.0,196.0,512.4444444444445,483.64444444444445,594.8444444444444,378.0,333.0,511.0
0,641.0,498.0,662.0,532.0,498.0,662.0,509.0,509.0,509.0,514.0,514.0,514.0,514.0,641.0,641.0,641.0,641.0,549.0,549.0,549.0,378.0,378.0,378.0,532.0,532.0,532.0,333.0,333.0,333.0,391.0,391.0,391.0,391.0,469.0,469.0,469.0,469.0,448.0,448.0,448.0,490.0,490.0,490.0,498.0,498.0,498.0,543.0,543.0,543.0,547.0,547.0,547.0,547.0,573.0,573.0,573.0,573.0,527.0,527.0,527.0,511.0,511.0,511.0,662.0,662.0,662.0,263.0,257.0,165.0,507.68888888888887,484.53333333333336,587.4888888888889,378.0,333.0,511.0
0,641.0,548.0,662.0,522.0,548.0,499.0,514.0,514.0,514.0,514.0,641.0,641.0,641.0,641.0,549.0,549.0,549.0,378.0,378.0,378.0,532.0,532.0,532.0,532.0,522.0,522.0,391.0,391.0,391.0,391.0,469.0,469.0,469.0,469.0,448.0,448.0,448.0,490.0,490.0,490.0,498.0,498.0,498.0,498.0,548.0,548.0,547.0,547.0,547.0,547.0,573.0,573.0,573.0,573.0,527.0,527.0,527.0,511.0,511.0,511.0,662.0,662.0,662.0,662.0,499.0,499.0,263.0,257.0,177.0,508.5777777777778,480.6222222222222,582.3777777777777,378.0,391.0,499.0
0,641.0,553.0,662.0,515.0,553.0,565.0,641.0,641.0,641.0,641.0,549.0,549.0,549.0,378.0,378.0,378.0,532.0,532.0,532.0,532.0,522.0,522.0,522.0,522.0,515.0,515.0,469.0,469.0,469.0,469.0,448.0,448.0,448.0,490.0,490.0,490.0,498.0,498.0,498.0,498.0,548.0,548.0,548.0,548.0,553.0,553.0,573.0,573.0,573.0,573.0,527.0,527.0,527.0,511.0,511.0,511.0,662.0,662.0,662.0,662.0,499.0,499.0,499.0,499.0,565.0,565.0,263.0,229.0,177.0,512.0888888888888,484.44444444444446,572.5333333333333,378.0,448.0,499.0
0,560.0,611.0,662.0,560.0,611.0,503.0,549.0,549.0,549.0,378.0,378.0,378.0,532.0,532.0,532.0,532.0,522.0,522.0,522.0,522.0,515.0,515.0,515.0,515.0,560.0,560.0,448.0,448.0,448.0,490.0,490.0,490.0,498.0,498.0,498.0,498.0,548.0,548.0,548.0,548.0,553.0,553.0,553.0,553.0,611.0,611.0,527.0,527.0,527.0,511.0,511.0,511.0,662.0,662.0,662.0,662.0,499.0,499.0,499.0,499.0,565.0,565.0,565.0,565.0,503.0,503.0,263.0,278.0,177.0,518.4,488.97777777777776,570.1555555555556,378.0,448.0,499.0
0,560.0,670.0,662.0,426.0,670.0,595.0,378.0,378.0,532.0,532.0,532.0,532.0,522.0,522.0,522.0,522.0,515.0,515.0,515.0,515.0,560.0,560.0,560.0,560.0,426.0,426.0,490.0,490.0,498.0,498.0,498.0,498.0,548.0,548.0,548.0,548.0,553.0,553.0,553.0,553.0,611.0,611.0,611.0,611.0,670.0,670.0,511.0,511.0,662.0,662.0,662.0,662.0,499.0,499.0,499.0,499.0,565.0,565.0,565.0,565.0,503.0,503.0,503.0,503.0,595.0,595.0,263.0,337.0,177.0,520.8,496.5777777777778,565.2666666666667,378.0,490.0,499.0
0,560.0,670.0,662.0,477.0,574.0,527.0,532.0,522.0,522.0,522.0,522.0,515.0,515.0,515.0,515.0,560.0,560.0,560.0,560.0,426.0,426.0,426.0,426.0,426.0,477.0,477.0,498.0,548.0,548.0,548.0,548.0,553.0,553.0,553.0,553.0,611.0,611.0,611.0,611.0,670.0,670.0,670.0,670.0,670.0,574.0,574.0,662.0,499.0,499.0,499.0,499.0,565.0,565.0,565.0,565.0,503.0,503.0,503.0,503.0,595.0,595.0,595.0,595.0,595.0,527.0,527.0,263.0,337.0,163.0,514.0888888888888,508.3777777777778,554.4444444444445,426.0,498.0,499.0
0,615.0,670.0,621.0,615.0,416.0,621.0,522.0,515.0,515.0,515.0,515.0,560.0,560.0,560.0,560.0,426.0,426.0,426.0,426.0,426.0,477.0,477.0,477.0,477.0,615.0,615.0,548.0,553.0,553.0,553.0,553.0,611.0,611.0,611.0,611.0,670.0,670.0,670.0,670.0,670.0,574.0,574.0,574.0,574.0,416.0,416.0,499.0,565.0,565.0,565.0,565.0,503.0,503.0,503.0,503.0,595.0,595.0,595.0,595.0,595.0,527.0,527.0,527.0,527.0,621.0,621.0,263.0,337.0,163.0,516.0222222222222,508.97777777777776,555.7111111111111,426.0,416.0,499.0
0,615.0,670.0,624.0,550.0,634.0,624.0,515.0,560.0,560.0,560.0,560.0,426.0,426.0,426.0,426.0,426.0,477.0,477.0,477.0,477.0,615.0,615.0,615.0,615.0,550.0,550.0,553.0,611.0,611.0,611.0,611.0,670.0,670.0,670.0,670.0,670.0,574.0,574.0,574.0,574.0,416.0,416.0,416.0,416.0,634.0,634.0,565.0,503.0,503.0,503.0,503.0,595.0,595.0,595.0,595.0,595.0,527.0,527.0,527.0,527.0,621.0,621.0,621.0,621.0,624.0,624.0,263.0,279.0,163.0,522.5555555555555,526.0444444444445,562.7777777777778,426.0,416.0,503.0
0,615.0,670.0,624.0,490.0,525.0,620.0,560.0,426.0,426.0,426.0,426.0,426.0,477.0,477.0,477.0,477.0,615.0,615.0,615.0,615.0,550.0,550.0,550.0,550.0,490.0,490.0,611.0,670.0,670.0,670.0,670.0,670.0,574.0,574.0,574.0,574.0,416.0,416.0,416.0,416.0,634.0,634.0,634.0,634.0,525.0,525.0,503.0,595.0,595.0,595.0,595.0,595.0,527.0,527.0,527.0,527.0,621.0,621.0,621.0,621.0,624.0,624.0,624.0,624.0,620.0,620.0,263.0,254.0,163.0,523.0888888888888,542.8,569.4444444444445,426.0,416.0,503.0
0,615.0,670.0,711.0,456.0,516.0,711.0,426.0,426.0,477.0,477.0,477.0,477.0,615.0,615.0,615.0,615.0,550.0,550.0,550.0,550.0,490.0,490.0,490.0,490.0,456.0,456.0,670.0,670.0,574.0,574.0,574.0,574.0,416.0,416.0,416.0,416.0,634.0,634.0,634.0,634.0,525.0,525.0,525.0,525.0,516.0,516.0,595.0,595.0,527.0,527.0,527.0,527.0,621.0,621.0,621.0,621.0,624.0,624.0,624.0,624.0,620.0,620.0,620.0,620.0,711.0,711.0,237.0,254.0,212.0,508.15555555555557,547.3777777777777,577.6666666666666,426.0,416.0,527.0
0,615.0,663.0,711.0,496.0,663.0,647.0,477.0,477.0,615.0,615.0,615.0,615.0,550.0,550.0,550.0,550.0,490.0,490.0,490.0,490.0,456.0,456.0,456.0,456.0,496.0,496.0,574.0,574.0,416.0,416.0,416.0,416.0,634.0,634.0,634.0,634.0,525.0,525.0,525.0,525.0,516.0,516.0,516.0,516.0,663.0,663.0,527.0,527.0,621.0,621.0,621.0,621.0,624.0,624.0,624.0,624.0,620.0,620.0,620.0,620.0,711.0,711.0,711.0,711.0,647.0,647.0,237.0,254.0,212.0,505.46666666666664,559.0222222222222,591.5333333333333,456.0,416.0,527.0
0,615.0,663.0,711.0,477.0,592.0,654.0,615.0,615.0,550.0,550.0,550.0,550.0,490.0,490.0,490.0,490.0,456.0,456.0,456.0,456.0,496.0,496.0,496.0,496.0,477.0,477.0,416.0,416.0,634.0,634.0,634.0,634.0,525.0,525.0,525.0,525.0,516.0,516.0,516.0,516.0,663.0,663.0,663.0,663.0,592.0,592.0,621.0,621.0,624.0,624.0,624.0,624.0,620.0,620.0,620.0,620.0,711.0,711.0,711.0,711.0,647.0,647.0,647.0,647.0,654.0,654.0,189.0,254.0,212.0,508.26666666666665,570.8888888888889,597.2222222222222,456.0,416.0,620.0
0,597.0,663.0,711.0,597.0,557.0,641.0,550.0,550.0,490.0,490.0,490.0,490.0,456.0,456.0,456.0,456.0,496.0,496.0,496.0,496.0,477.0,477.0,477.0,477.0,477.0,597.0,634.0,634.0,525.0,525.0,525.0,525.0,516.0,516.0,516.0,516.0,663.0,663.0,663.0,663.0,592.0,592.0,592.0,592.0,592.0,557.0,624.0,624.0,620.0,620.0,620.0,620.0,711.0,711.0,711.0,711.0,647.0,647.0,647.0,647.0,654.0,654.0,654.0,654.0,654.0,641.0,189.0,254.0,212.0,506.4888888888889,576.2444444444444,603.4666666666667,456.0,516.0,620.0
0,597.0,663.0,711.0,519.0,512.0,673.0,490.0,490.0,456.0,456.0,456.0,456.0,496.0,496.0,496.0,496.0,477.0,477.0,477.0,477.0,477.0,597.0,597.0,597.0,519.0,519.0,525.0,525.0,516.0,516.0,516.0,516.0,663.0,663.0,663.0,663.0,592.0,592.0,592.0,592.0,592.0,557.0,557.0,557.0,512.0,512.0,620.0,620.0,711.0,711.0,711.0,711.0,647.0,647.0,647.0,647.0,654.0,654.0,654.0,654.0,654.0,641.0,641.0,641.0,673.0,673.0,189.0,254.0,208.0,510.0,574.8222222222222,614.5777777777778,456.0,512.0,620.0
0,597.0,663.0,711.0,469.0,453.0,613.0,456.0,496.0,496.0,496.0,496.0,477.0,477.0,477.0,477.0,477.0,597.0,597.0,597.0,519.0,519.0,519.0,519.0,519.0,469.0,469.0,516.0,663.0,663.0,663.0,663.0,592.0,592.0,592.0,592.0,592.0,557.0,557.0,557.0,512.0,512.0,512.0,512.0,512.0,453.0,453.0,711.0,647.0,647.0,647.0,647.0,654.0,654.0,654.0,654.0,654.0,641.0,641.0,641.0,673.0,673.0,673.0,673.0,673.0,613.0,613.0,189.0,254.0,208.0,505.22222222222223,563.7777777777778,628.0444444444445,456.0,453.0,613.0
0,597.0,663.0,673.0,543.0,453.0,501.0,496.0,477.0,477.0,477.0,477.0,477.0,597.0,597.0,597.0,519.0,519.0,519.0,519.0,519.0,469.0,469.0,469.0,469.0,543.0,543.0,663.0,592.0,592.0,592.0,592.0,592.0,557.0,557.0,557.0,512.0,512.0,512.0,512.0,512.0,453.0,453.0,453.0,453.0,453.0,453.0,647.0,654.0,654.0,654.0,654.0,654.0,641.0,641.0,641.0,673.0,673.0,673.0,673.0,673.0,613.0,613.0,613.0,613.0,501.0,501.0,189.0,254.0,210.0,509.35555555555555,545.8,626.7111111111111,469.0,453.0,501.0
0,597.0,592.0,673.0,534.0,552.0,349.0,477.0,477.0,597.0,597.0,597.0,519.0,519.0,519.0,519.0,519.0,469.0,469.0,469.0,469.0,543.0,543.0,543.0,543.0,543.0,534.0,592.0,592.0,557.0,557.0,557.0,512.0,512.0,512.0,512.0,512.0,453.0,453.0,453.0,453.0,453.0,453.0,453.0,453.0,453.0,552.0,654.0,654.0,641.0,641.0,641.0,673.0,673.0,673.0,673.0,673.0,613.0,613.0,613.0,613.0,501.0,501.0,501.0,501.0,501.0,349.0,159.0,247.0,362.0,517.2888888888889,532.9777777777778,618.0,469.0,453.0,349.0
0,597.0,557.0,673.0,562.0,524.0,595.0,597.0,519.0,519.0,519.0,519.0,519.0,469.0,469.0,469.0,469.0,543.0,543.0,543.0,543.0,543.0,534.0,534.0,534.0,562.0,562.0,557.0,512.0,512.0,512.0,512.0,512.0,453.0,453.0,453.0,453.0,453.0,453.0,453.0,453.0,453.0,552.0,552.0,552.0,524.0,524.0,641.0,673.0,673.0,673.0,673.0,673.0,613.0,613.0,613.0,613.0,501.0,501.0,501.0,501.0,501.0,349.0,349.0,349.0,595.0,595.0,159.0,247.0,362.0,517.4666666666667,536.8,608.9333333333333,469.0,453.0,349.0
0,562.0,552.0,673.0,545.0,416.0,513.0,519.0,519.0,469.0,469.0,469.0,469.0,543.0,543.0,543.0,543.0,543.0,534.0,534.0,534.0,562.0,562.0,562.0,562.0,545.0,545.0,512.0,512.0,453.0,453.0,453.0,453.0,453.0,453.0,453.0,453.0,453.0,552.0,552.0,552.0,524.0,524.0,524.0,524.0,416.0,416.0,673.0,673.0,613.0,613.0,613.0,613.0,501.0,501.0,501.0,501.0,501.0,349.0,349.0,349.0,595.0,595.0,595.0,595.0,513.0,513.0,141.0,247.0,362.0,514.8888888888889,531.9111111111112,602.8444444444444,469.0,416.0,349.0
0,562.0,552.0,613.0,497.0,446.0,527.0,469.0,469.0,469.0,543.0,543.0,543.0,543.0,543.0,534.0,534.0,534.0,562.0,562.0,562.0,562.0,545.0,545.0,545.0,545.0,497.0,453.0,453.0,453.0,453.0,453.0,453.0,453.0,453.0,552.0,552.0,552.0,524.0,524.0,524.0,524.0,416.0,416.0,416.0,416.0,446.0,613.0,613.0,613.0,501.0,501.0,501.0,501.0,501.0,349.0,349.0,349.0,595.0,595.0,595.0,595.0,513.0,513.0,513.0,513.0,527.0,141.0,247.0,362.0,514.8222222222222,520.4666666666667,595.8444444444444,469.0,416.0,349.0
0,593.0,552.0,595.0,593.0,408.0,540.0,543.0,543.0,543.0,543.0,534.0,534.0,534.0,562.0,562.0,562.0,562.0,545.0,545.0,545.0,545.0,497.0,497.0,497.0,593.0,593.0,453.0,453.0,453.0,453.0,552.0,552.0,552.0,524.0,524.0,524.0,524.0,416.0,416.0,416.0,416.0,446.0,446.0,446.0,408.0,408.0,501.0,501.0,501.0,501.0,349.0,349.0,349.0,595.0,595.0,595.0,595.0,513.0,513.0,513.0,513.0,527.0,527.0,527.0,540.0,540.0,141.0,255.0,362.0,520.4666666666667,511.9555555555556,586.1333333333333,497.0,408.0,349.0
0,593.0,552.0,595.0,572.0,393.0,523.0,543.0,534.0,534.0,534.0,562.0,562.0,562.0,562.0,545.0,545.0,545.0,545.0,497.0,497.0,497.0,593.0,593.0,593.0,572.0,572.0,453.0,552.0,552.0,552.0,524.0,524.0,524.0,524.0,416.0,416.0,416.0,416.0,446.0,446.0,446.0,408.0,408.0,408.0,393.0,393.0,501.0,349.0,349.0,349.0,595.0,595.0,595.0,595.0,513.0,513.0,513.0,513.0,527.0,527.0,527.0,540.0,540.0,540.0,523.0,523.0,128.0,270.0,324.0,528.6666666666666,504.0888888888889,573.9777777777778,497.0,393.0,349.0
0,593.0,524.0,668.0,518.0,377.0,668.0,562.0,562.0,562.0,545.0,545.0,545.0,545.0,497.0,497.0,497.0,593.0,593.0,593.0,572.0,572.0,572.0,572.0,572.0,518.0,518.0,524.0,524.0,524.0,416.0,416.0,416.0,416.0,446.0,446.0,446.0,408.0,408.0,408.0,393.0,393.0,393.0,393.0,393.0,377.0,377.0,595.0,595.0,595.0,513.0,513.0,513.0,513.0,527.0,527.0,527.0,540.0,540.0,540.0,523.0,523.0,523.0,523.0,523.0,668.0,668.0,128.0,215.0,324.0,535.1333333333333,474.9555555555556,566.4888888888889,497.0,377.0,513.0
0,593.0,563.0,668.0,508.0,563.0,572.0,545.0,545.0,545.0,497.0,497.0,497.0,593.0,593.0,593.0,572.0,572.0,572.0,572.0,572.0,518.0,518.0,518.0,518.0,508.0,508.0,416.0,416.0,416.0,446.0,446.0,446.0,408.0,408.0,408.0,393.0,393.0,393.0,393.0,393.0,377.0,377.0,377.0,377.0,563.0,563.0,513.0,513.0,513.0,527.0,527.0,527.0,540.0,540.0,540.0,523.0,523.0,523.0,523.0,523.0,668.0,668.0,668.0,668.0,572.0,572.0,128.0,186.0,324.0,538.3333333333334,464.1111111111111,563.4666666666667,497.0,377.0,513.0
0,593.0,563.0,668.0,527.0,536.0,406.0,497.0,497.0,593.0,593.0,593.0,572.0,572.0,572.0,572.0,572.0,518.0,518.0,518.0,518.0,508.0,508.0,508.0,508.0,527.0,527.0,446.0,446.0,408.0,408.0,408.0,393.0,393.0,393.0,393.0,393.0,377.0,377.0,377.0,377.0,563.0,563.0,563.0,563.0,536.0,536.0,527.0,527.0,540.0,540.0,540.0,523.0,523.0,523.0,523.0,523.0,668.0,668.0,668.0,668.0,572.0,572.0,572.0,572.0,406.0,406.0,124.0,186.0,324.0,533.0,464.44444444444446,549.2444444444444,497.0,377.0,406.0
0,593.0,563.0,668.0,469.0,406.0,601.0,593.0,572.0,572.0,572.0,572.0,572.0,518.0,518.0,518.0,518.0,508.0,508.0,508.0,508.0,527.0,527.0,527.0,527.0,469.0,469.0,408.0,393.0,393.0,393.0,393.0,393.0,377.0,377.0,377.0,377.0,563.0,563.0,563.0,563.0,536.0,536.0,536.0,536.0,406.0,406.0,540.0,523.0,523.0,523.0,523.0,523.0,668.0,668.0,668.0,668.0,572.0,572.0,572.0,572.0,406.0,406.0,406.0,406.0,601.0,601.0,124.0,186.0,319.0,531.1333333333333,460.8,534.1777777777778,469.0,377.0,406.0
0,577.0,563.0,668.0,577.0,483.0,530.0,572.0,572.0,518.0,518.0,518.0,518.0,508.0,508.0,508.0,508.0,527.0,527.0,527.0,527.0,469.0,469.0,469.0,469.0,577.0,577.0,393.0,393.0,377.0,377.0,377.0,377.0,563.0,563.0,563.0,563.0,536.0,536.0,536.0,536.0,406.0,406.0,406.0,406.0,483.0,483.0,523.0,523.0,668.0,668.0,668.0,668.0,572.0,572.0,572.0,572.0,406.0,406.0,406.0,406.0,601.0,601.0,601.0,601.0,530.0,530.0,124.0,186.0,319.0,535.9333333333333,460.0444444444444,529.9555555555555,469.0,377.0,406.0
0,577.0,563.0,668.0,513.0,541.0,473.0,518.0,518.0,508.0,508.0,508.0,508.0,527.0,527.0,527.0,527.0,469.0,469.0,469.0,469.0,577.0,577.0,577.0,513.0,513.0,513.0,377.0,377.0,563.0,563.0,563.0,563.0,536.0,536.0,536.0,536.0,406.0,406.0,406.0,406.0,483.0,483.0,483.0,541.0,541.0,541.0,668.0,668.0,572.0,572.0,572.0,572.0,406.0,406.0,406.0,406.0,601.0,601.0,601.0,601.0,530.0,530.0,530.0,473.0,473.0,473.0,124.0,186.0,319.0,534.6888888888889,466.5777777777778,528.7333333333333,469.0,377.0,406.0
0,577.0,563.0,601.0,516.0,543.0,582.0,508.0,527.0,527.0,527.0,527.0,469.0,469.0,469.0,469.0,577.0,577.0,577.0,513.0,513.0,513.0,513.0,513.0,513.0,516.0,516.0,563.0,536.0,536.0,536.0,536.0,406.0,406.0,406.0,406.0,483.0,483.0,483.0,541.0,541.0,541.0,541.0,541.0,541.0,543.0,543.0,572.0,406.0,406.0,406.0,406.0,601.0,601.0,601.0,601.0,530.0,530.0,530.0,473.0,473.0,473.0,473.0,473.0,473.0,582.0,582.0,124.0,186.0,262.0,531.6666666666666,468.26666666666665,538.5111111111111,469.0,406.0,406.0
0,577.0,557.0,601.0,458.0,557.0,586.0,527.0,469.0,469.0,469.0,469.0,577.0,577.0,577.0,513.0,513.0,513.0,513.0,513.0,513.0,516.0,516.0,516.0,516.0,458.0,458.0,536.0,406.0,406.0,406.0,406.0,483.0,483.0,483.0,541.0,541.0,541.0,541.0,541.0,541.0,543.0,543.0,543.0,543.0,557.0,557.0,406.0,601.0,601.0,601.0,601.0,530.0,530.0,530.0,473.0,473.0,473.0,473.0,473.0,473.0,582.0,582.0,582.0,582.0,586.0,586.0,135.0,186.0,262.0,525.3777777777777,472.97777777777776,539.3555555555556,458.0,406.0,406.0
0,585.0,591.0,601.0,585.0,591.0,382.0,469.0,577.0,577.0,577.0,513.0,513.0,513.0,513.0,513.0,513.0,516.0,516.0,516.0,516.0,458.0,458.0,458.0,458.0,585.0,585.0,406.0,483.0,483.0,483.0,541.0,541.0,541.0,541.0,541.0,541.0,543.0,543.0,543.0,543.0,557.0,557.0,557.0,557.0,591.0,591.0,601.0,530.0,530.0,530.0,473.0,473.0,473.0,473.0,473.0,473.0,582.0,582.0,582.0,582.0,586.0,586.0,586.0,586.0,382.0,382.0,135.0,214.0,286.0,524.3555555555556,486.35555555555555,536.4666666666667,458.0,406.0,382.0
0,585.0,621.0,606.0,560.0,621.0,606.0,577.0,513.0,513.0,513.0,513.0,513.0,513.0,516.0,516.0,516.0,516.0,458.0,458.0,458.0,458.0,585.0,585.0,585.0,560.0,560.0,483.0,541.0,541.0,541.0,541.0,541.0,541.0,543.0,543.0,543.0,543.0,557.0,557.0,557.0,557.0,591.0,591.0,591.0,621.0,621.0,530.0,473.0,473.0,473.0,473.0,473.0,473.0,582.0,582.0,582.0,582.0,586.0,586.0,586.0,586.0,382.0,382.0,382.0,606.0,606.0,135.0,244.0,286.0,526.9777777777778,498.2,536.4666666666667,458.0,483.0,382.0
0,631.0,621.0,606.0,631.0,576.0,597.0,513.0,513.0,513.0,516.0,516.0,516.0,516.0,458.0,458.0,458.0,458.0,585.0,585.0,585.0,560.0,560.0,560.0,560.0,631.0,631.0,541.0,541.0,541.0,543.0,543.0,543.0,543.0,557.0,557.0,557.0,557.0,591.0,591.0,591.0,621.0,621.0,621.0,621.0,576.0,576.0,473.0,473.0,473.0,582.0,582.0,582.0,582.0,586.0,586.0,586.0,586.0,382.0,382.0,382.0,606.0,606.0,606.0,606.0,597.0,597.0,173.0,244.0,286.0,528.1333333333333,515.8,542.6888888888889,458.0,541.0,382.0
0,631.0,624.0,606.0,506.0,624.0,411.0,516.0,516.0,516.0,458.0,458.0,458.0,458.0,585.0,585.0,585.0,560.0,560.0,560.0,560.0,631.0,631.0,631.0,631.0,506.0,506.0,543.0,543.0,543.0,557.0,557.0,557.0,557.0,591.0,591.0,591.0,621.0,621.0,621.0,621.0,576.0,576.0,576.0,576.0,624.0,624.0,582.0,582.0,582.0,586.0,586.0,586.0,586.0,382.0,382.0,382.0,606.0,606.0,606.0,606.0,597.0,597.0,597.0,597.0,411.0,411.0,173.0,247.0,286.0,529.0222222222222,534.5555555555555,537.7777777777778,458.0,543.0,382.0
0,631.0,660.0,713.0,445.0,660.0,713.0,458.0,458.0,458.0,585.0,585.0,585.0,560.0,560.0,560.0,560.0,631.0,631.0,631.0,631.0,506.0,506.0,506.0,506.0,445.0,445.0,557.0,557.0,557.0,591.0,591.0,591.0,621.0,621.0,621.0,621.0,576.0,576.0,576.0,576.0,624.0,624.0,624.0,624.0,660.0,660.0,586.0,586.0,586.0,382.0,382.0,382.0,606.0,606.0,606.0,606.0,597.0,597.0,597.0,597.0,411.0,411.0,411.0,411.0,713.0,713.0,186.0,254.0,331.0,525.4666666666667,553.9777777777778,530.4888888888889,445.0,557.0,382.0
0,631.0,660.0,713.0,568.0,562.0,641.0,585.0,585.0,560.0,560.0,560.0,560.0,631.0,631.0,631.0,631.0,506.0,506.0,506.0,506.0,445.0,445.0,445.0,445.0,568.0,568.0,591.0,591.0,621.0,621.0,621.0,621.0,576.0,576.0,576.0,576.0,624.0,624.0,624.0,624.0,660.0,660.0,660.0,660.0,562.0,562.0,382.0,382.0,606.0,606.0,606.0,606.0,597.0,597.0,597.0,597.0,411.0,411.0,411.0,411.0,713.0,713.0,713.0,713.0,641.0,641.0,186.0,254.0,331.0,524.9111111111112,558.8444444444444,543.5111111111111,445.0,562.0,382.0
0,631.0,660.0,713.0,564.0,515.0,543.0,560.0,560.0,631.0,631.0,631.0,631.0,506.0,506.0,506.0,506.0,445.0,445.0,445.0,445.0,568.0,568.0,568.0,568.0,564.0,564.0,621.0,621.0,576.0,576.0,576.0,576.0,624.0,624.0,624.0,624.0,660.0,660.0,660.0,660.0,562.0,562.0,562.0,562.0,515.0,515.0,606.0,606.0,597.0,597.0,597.0,597.0,411.0,411.0,411.0,411.0,713.0,713.0,713.0,713.0,641.0,641.0,641.0,641.0,543.0,543.0,186.0,254.0,331.0,529.6666666666666,561.9555555555555,555.7111111111111,445.0,515.0,411.0
0,631.0,660.0,713.0,537.0,583.0,546.0,631.0,631.0,506.0,506.0,506.0,506.0,445.0,445.0,445.0,445.0,568.0,568.0,568.0,568.0,564.0,564.0,564.0,564.0,537.0,537.0,576.0,576.0,624.0,624.0,624.0,624.0,660.0,660.0,660.0,660.0,562.0,562.0,562.0,562.0,515.0,515.0,515.0,515.0,583.0,583.0,597.0,597.0,411.0,411.0,411.0,411.0,713.0,713.0,713.0,713.0,641.0,641.0,641.0,641.0,543.0,543.0,543.0,543.0,546.0,546.0,186.0,177.0,331.0,534.5111111111111,572.9555555555555,552.2666666666667,445.0,515.0,411.0
0,583.0,660.0,713.0,583.0,345.0,684.0,506.0,506.0,445.0,445.0,445.0,445.0,568.0,568.0,568.0,568.0,564.0,564.0,564.0,564.0,537.0,537.0,537.0,537.0,583.0,583.0,624.0,624.0,660.0,660.0,660.0,660.0,562.0,562.0,562.0,562.0,515.0,515.0,515.0,515.0,583.0,583.0,583.0,583.0,345.0,345.0,411.0,411.0,713.0,713.0,713.0,713.0,641.0,641.0,641.0,641.0,543.0,543.0,543.0,543.0,546.0,546.0,546.0,546.0,684.0,684.0,186.0,315.0,331.0,535.8444444444444,568.6888888888889,562.3555555555556,445.0,345.0,411.0
0,583.0,660.0,713.0,481.0,482.0,585.0,445.0,445.0,568.0,568.0,568.0,568.0,564.0,564.0,564.0,564.0,537.0,537.0,537.0,537.0,583.0,583.0,583.0,583.0,481.0,481.0,660.0,660.0,562.0,562.0,562.0,562.0,515.0,515.0,515.0,515.0,583.0,583.0,583.0,583.0,345.0,345.0,345.0,345.0,482.0,482.0,713.0,713.0,641.0,641.0,641.0,641.0,543.0,543.0,543.0,543.0,546.0,546.0,546.0,546.0,684.0,684.0,684.0,684.0,585.0,585.0,186.0,315.0,331.0,537.5333333333333,557.3555555555556,576.7111111111111,445.0,345.0,543.0
0,583.0,583.0,684.0,464.0,487.0,646.0,568.0,568.0,564.0,564.0,564.0,564.0,537.0,537.0,537.0,537.0,583.0,583.0,583.0,583.0,481.0,481.0,481.0,481.0,464.0,464.0,562.0,562.0,515.0,515.0,515.0,515.0,583.0,583.0,583.0,583.0,345.0,345.0,345.0,345.0,482.0,482.0,482.0,482.0,487.0,487.0,641.0,641.0,543.0,543.0,543.0,543.0,546.0,546.0,546.0,546.0,684.0,684.0,684.0,684.0,585.0,585.0,585.0,585.0,646.0,646.0,186.0,315.0,331.0,533.6666666666666,552.1555555555556,579.6888888888889,464.0,345.0,543.0
0,583.0,583.0,688.0,502.0,334.0,688.0,564.0,537.0,537.0,537.0,583.0,583.0,583.0,583.0,481.0,481.0,481.0,481.0,464.0,464.0,464.0,464.0,464.0,464.0,502.0,502.0,515.0,583.0,583.0,583.0,345.0,345.0,345.0,345.0,482.0,482.0,482.0,482.0,487.0,487.0,487.0,487.0,487.0,487.0,334.0,334.0,543.0,546.0,546.0,546.0,684.0,684.0,684.0,684.0,585.0,585.0,585.0,585.0,646.0,646.0,646.0,646.0,646.0,646.0,688.0,688.0,186.0,326.0,331.0,532.3555555555556,540.2222222222222,591.8222222222222,464.0,334.0,543.0
0,583.0,487.0,688.0,494.0,373.0,463.0,583.0,583.0,583.0,583.0,481.0,481.0,481.0,481.0,464.0,464.0,464.0,464.0,464.0,464.0,502.0,502.0,502.0,502.0,494.0,494.0,345.0,345.0,345.0,345.0,482.0,482.0,482.0,482.0,487.0,487.0,487.0,487.0,487.0,487.0,334.0,334.0,334.0,334.0,373.0,373.0,684.0,684.0,684.0,684.0,585.0,585.0,585.0,585.0,646.0,646.0,646.0,646.0,646.0,646.0,688.0,688.0,688.0,688.0,463.0,463.0,186.0,326.0,302.0,524.4444444444445,511.4,600.8888888888889,464.0,334.0,463.0
0,555.0,487.0,688.0,555.0,375.0,477.0,481.0,481.0,481.0,481.0,464.0,464.0,464.0,464.0,464.0,464.0,502.0,502.0,502.0,502.0,494.0,494.0,494.0,494.0,555.0,555.0,482.0,482.0,482.0,482.0,487.0,487.0,487.0,487.0,487.0,487.0,334.0,334.0,334.0,334.0,373.0,373.0,373.0,373.0,375.0,375.0,585.0,585.0,585.0,585.0,646.0,646.0,646.0,646.0,646.0,646.0,688.0,688.0,688.0,688.0,463.0,463.0,463.0,463.0,477.0,477.0,186.0,326.0,302.0,516.5555555555555,492.44444444444446,589.4,464.0,334.0,463.0
0,555.0,487.0,688.0,488.0,402.0,557.0,464.0,464.0,464.0,464.0,464.0,464.0,502.0,502.0,502.0,502.0,494.0,494.0,494.0,494.0,555.0,555.0,555.0,555.0,488.0,488.0,487.0,487.0,487.0,487.0,487.0,487.0,334.0,334.0,334.0,334.0,373.0,373.0,373.0,373.0,375.0,375.0,375.0,375.0,402.0,402.0,646.0,646.0,646.0,646.0,646.0,646.0,688.0,688.0,688.0,688.0,463.0,463.0,463.0,463.0,477.0,477.0,477.0,477.0,557.0,557.0,138.0,326.0,302.0,515.1555555555556,472.5777777777778,594.6888888888889,464.0,334.0,463.0
0,565.0,487.0,688.0,565.0,437.0,453.0,464.0,464.0,502.0,502.0,502.0,502.0,494.0,494.0,494.0,494.0,555.0,555.0,555.0,555.0,488.0,488.0,488.0,488.0,565.0,565.0,487.0,487.0,334.0,334.0,334.0,334.0,373.0,373.0,373.0,373.0,375.0,375.0,375.0,375.0,402.0,402.0,402.0,402.0,437.0,437.0,646.0,646.0,688.0,688.0,688.0,688.0,463.0,463.0,463.0,463.0,477.0,477.0,477.0,477.0,557.0,557.0,557.0,557.0,453.0,453.0,138.0,326.0,260.0,521.0444444444445,452.0,582.9111111111112,464.0,334.0,453.0
0,565.0,582.0,688.0,482.0,582.0,531.0,502.0,502.0,494.0,494.0,494.0,494.0,555.0,555.0,555.0,555.0,488.0,488.0,488.0,488.0,565.0,565.0,565.0,565.0,565.0,482.0,334.0,334.0,373.0,373.0,373.0,373.0,375.0,375.0,375.0,375.0,402.0,402.0,402.0,402.0,437.0,437.0,437.0,437.0,582.0,582.0,688.0,688.0,463.0,463.0,463.0,463.0,477.0,477.0,477.0,477.0,557.0,557.0,557.0,557.0,453.0,453.0,453.0,453.0,531.0,531.0,119.0,249.0,235.0,521.6666666666666,441.93333333333334,566.3333333333334,482.0,334.0,453.0
0,565.0,582.0,600.0,447.0,548.0,600.0,494.0,555.0,555.0,555.0,555.0,488.0,488.0,488.0,488.0,565.0,565.0,565.0,565.0,565.0,482.0,482.0,482.0,482.0,447.0,447.0,373.0,375.0,375.0,375.0,375.0,402.0,402.0,402.0,402.0,437.0,437.0,437.0,437.0,437.0,582.0,582.0,582.0,582.0,548.0,548.0,463.0,477.0,477.0,477.0,477.0,557.0,557.0,557.0,557.0,453.0,453.0,453.0,453.0,453.0,531.0,531.0,531.0,531.0,600.0,600.0,136.0,249.0,235.0,510.9111111111111,446.8222222222222,565.8888888888889,447.0,373.0,453.0
0,565.0,582.0,600.0,447.0,548.0,600.0,555.0,555.0,555.0,488.0,488.0,488.0,488.0,565.0,565.0,565.0,565.0,565.0,482.0,482.0,482.0,482.0,447.0,447.0,447.0,447.0,375.0,375.0,375.0,402.0,402.0,402.0,402.0,437.0,437.0,437.0,437.0,437.0,582.0,582.0,582.0,582.0,548.0,548.0,548.0,548.0,477.0,477.0,477.0,557.0,557.0,557.0,557.0,453.0,453.0,453.0,453.0,453.0,531.0,531.0,531.0,531.0,600.0,600.0,600.0,600.0,136.0,249.0,235.0,506.9111111111111,445.26666666666665,568.2888888888889,447.0,375.0,453.0
0,565.0,613.0,663.0,456.0,613.0,663.0,488.0,488.0,565.0,565.0,565.0,565.0,565.0,482.0,482.0,482.0,482.0,447.0,447.0,447.0,447.0,507.0,507.0,507.0,456.0,456.0,402.0,402.0,437.0,437.0,437.0,437.0,437.0,582.0,582.0,582.0,582.0,548.0,548.0,548.0,548.0,430.0,430.0,430.0,613.0,613.0,557.0,557.0,453.0,453.0,453.0,453.0,453.0,531.0,531.0,531.0,531.0,600.0,600.0,600.0,600.0,555.0,555.0,555.0,663.0,663.0,136.0,279.0,235.0,498.24444444444447,452.26666666666665,564.8888888888889,447.0,402.0,453.0
0,565.0,613.0,663.0,480.0,606.0,581.0,565.0,565.0,565.0,482.0,482.0,482.0,482.0,447.0,447.0,447.0,447.0,507.0,507.0,507.0,456.0,456.0,456.0,456.0,480.0,480.0,437.0,437.0,437.0,582.0,582.0,582.0,582.0,548.0,548.0,548.0,548.0,430.0,430.0,430.0,613.0,613.0,613.0,613.0,606.0,606.0,453.0,453.0,453.0,531.0,531.0,531.0,531.0,600.0,600.0,600.0,600.0,555.0,555.0,555.0,663.0,663.0,663.0,663.0,581.0,581.0,118.0,279.0,235.0,494.8222222222222,466.64444444444445,565.9777777777778,447.0,430.0,453.0
0,559.0,615.0,663.0,559.0,615.0,628.0,482.0,482.0,482.0,447.0,447.0,447.0,447.0,507.0,507.0,507.0,456.0,456.0,456.0,456.0,480.0,480.0,480.0,480.0,559.0,559.0,582.0,582.0,582.0,548.0,548.0,548.0,548.0,430.0,430.0,430.0,613.0,613.0,613.0,613.0,606.0,606.0,606.0,606.0,615.0,615.0,531.0,531.0,531.0,600.0,600.0,600.0,600.0,555.0,555.0,555.0,663.0,663.0,663.0,663.0,581.0,581.0,581.0,581.0,628.0,628.0,118.0,281.0,235.0,499.3777777777778,477.73333333333335,563.6444444444444,447.0,430.0,531.0
0,559.0,615.0,663.0,490.0,559.0,609.0,447.0,447.0,447.0,507.0,507.0,507.0,456.0,456.0,456.0,456.0,480.0,480.0,480.0,480.0,559.0,559.0,559.0,559.0,490.0,490.0,548.0,548.0,548.0,430.0,430.0,430.0,613.0,613.0,613.0,613.0,606.0,606.0,606.0,606.0,615.0,615.0,615.0,615.0,559.0,559.0,600.0,600.0,600.0,555.0,555.0,555.0,663.0,663.0,663.0,663.0,581.0,581.0,581.0,581.0,628.0,628.0,628.0,628.0,609.0,609.0,118.0,281.0,235.0,503.9111111111111,490.02222222222224,560.2666666666667,447.0,430.0,555.0
0,559.0,615.0,666.0,508.0,528.0,666.0,507.0,456.0,456.0,456.0,456.0,480.0,480.0,480.0,480.0,559.0,559.0,559.0,559.0,490.0,490.0,490.0,490.0,490.0,508.0,508.0,430.0,613.0,613.0,613.0,613.0,606.0,606.0,606.0,606.0,615.0,615.0,615.0,615.0,559.0,559.0,559.0,559.0,559.0,528.0,528.0,555.0,663.0,663.0,663.0,663.0,581.0,581.0,581.0,581.0,628.0,628.0,628.0,628.0,609.0,609.0,609.0,609.0,609.0,666.0,666.0,118.0,242.0,213.0,503.73333333333335,511.9111111111111,564.0222222222222,456.0,430.0,555.0
0,559.0,615.0,666.0,539.0,528.0,642.0,456.0,480.0,480.0,480.0,480.0,559.0,559.0,559.0,559.0,490.0,490.0,490.0,490.0,490.0,508.0,508.0,508.0,508.0,539.0,539.0,613.0,606.0,606.0,606.0,606.0,615.0,615.0,615.0,615.0,559.0,559.0,559.0,559.0,559.0,528.0,528.0,528.0,528.0,528.0,528.0,663.0,581.0,581.0,581.0,581.0,628.0,628.0,628.0,628.0,609.0,609.0,609.0,609.0,609.0,666.0,666.0,666.0,666.0,642.0,642.0,118.0,240.0,213.0,503.64444444444445,525.6,580.3777777777777,456.0,528.0,581.0
0,559.0,615.0,666.0,515.0,584.0,507.0,480.0,559.0,559.0,559.0,559.0,490.0,490.0,490.0,490.0,490.0,508.0,508.0,508.0,508.0,539.0,539.0,539.0,539.0,515.0,515.0,606.0,615.0,615.0,615.0,615.0,559.0,559.0,559.0,559.0,559.0,528.0,528.0,528.0,528.0,528.0,528.0,528.0,528.0,584.0,584.0,581.0,628.0,628.0,628.0,628.0,609.0,609.0,609.0,609.0,609.0,666.0,666.0,666.0,666.0,642.0,642.0,642.0,642.0,507.0,507.0,118.0,213.0,213.0,504.1333333333333,540.4888888888889,585.4888888888889,480.0,528.0,507.0
0,559.0,615.0,722.0,470.0,558.0,722.0,559.0,559.0,490.0,490.0,490.0,490.0,490.0,508.0,508.0,508.0,508.0,539.0,539.0,539.0,539.0,515.0,515.0,515.0,515.0,470.0,615.0,615.0,559.0,559.0,559.0,559.0,559.0,528.0,528.0,528.0,528.0,528.0,528.0,528.0,528.0,584.0,584.0,584.0,584.0,558.0,628.0,628.0,609.0,609.0,609.0,609.0,609.0,666.0,666.0,666.0,666.0,642.0,642.0,642.0,642.0,507.0,507.0,507.0,507.0,722.0,118.0,185.0,269.0,503.22222222222223,551.2666666666667,589.2444444444444,470.0,528.0,507.0
0,539.0,584.0,722.0,470.0,558.0,722.0,490.0,490.0,490.0,490.0,490.0,508.0,508.0,508.0,508.0,539.0,539.0,539.0,539.0,515.0,515.0,515.0,515.0,470.0,470.0,508.0,559.0,559.0,559.0,559.0,559.0,528.0,528.0,528.0,528.0,528.0,528.0,528.0,528.0,584.0,584.0,584.0,558.0,558.0,558.0,507.0,609.0,609.0,609.0,609.0,609.0,666.0,666.0,666.0,666.0,642.0,642.0,642.0,642.0,507.0,507.0,507.0,722.0,722.0,722.0,680.0,118.0,185.0,269.0,499.0,556.6444444444444,601.2,470.0,528.0,507.0
0,539.0,584.0,722.0,509.0,459.0,483.0,508.0,508.0,508.0,508.0,539.0,539.0,539.0,539.0,515.0,515.0,515.0,515.0,470.0,470.0,470.0,508.0,508.0,508.0,509.0,509.0,528.0,528.0,528.0,528.0,528.0,528.0,528.0,528.0,584.0,584.0,584.0,584.0,558.0,558.0,558.0,507.0,507.0,507.0,459.0,459.0,666.0,666.0,666.0,666.0,642.0,642.0,642.0,642.0,507.0,507.0,507.0,507.0,722.0,722.0,722.0,680.0,680.0,680.0,483.0,483.0,112.0,185.0,239.0,498.24444444444447,552.6222222222223,612.4666666666667,470.0,459.0,483.0
0,539.0,584.0,722.0,486.0,549.0,577.0,508.0,539.0,539.0,539.0,539.0,515.0,515.0,515.0,515.0,470.0,470.0,470.0,508.0,508.0,508.0,509.0,509.0,509.0,486.0,486.0,528.0,528.0,528.0,528.0,528.0,584.0,584.0,584.0,584.0,558.0,558.0,558.0,507.0,507.0,507.0,459.0,459.0,459.0,549.0,549.0,666.0,642.0,642.0,642.0,642.0,507.0,507.0,507.0,507.0,722.0,722.0,722.0,680.0,680.0,680.0,483.0,483.0,483.0,577.0,577.0,112.0,185.0,239.0,500.5777777777778,549.9333333333333,610.3777777777777,470.0,459.0,483.0
0,583.0,584.0,722.0,583.0,485.0,636.0,539.0,515.0,515.0,515.0,515.0,470.0,470.0,470.0,508.0,508.0,508.0,509.0,509.0,509.0,486.0,486.0,486.0,486.0,583.0,583.0,528.0,584.0,584.0,584.0,584.0,558.0,558.0,558.0,507.0,507.0,507.0,459.0,459.0,459.0,549.0,549.0,549.0,549.0,485.0,485.0,642.0,507.0,507.0,507.0,507.0,722.0,722.0,722.0,680.0,680.0,680.0,483.0,483.0,483.0,577.0,577.0,577.0,577.0,636.0,636.0,127.0,185.0,239.0,505.68888888888887,552.4222222222222,612.9555555555555,470.0,459.0,483.0
0,583.0,584.0,722.0,475.0,493.0,597.0,515.0,470.0,470.0,470.0,508.0,508.0,508.0,509.0,509.0,509.0,486.0,486.0,486.0,486.0,583.0,583.0,583.0,583.0,475.0,475.0,584.0,558.0,558.0,558.0,507.0,507.0,507.0,459.0,459.0,459.0,549.0,549.0,549.0,549.0,485.0,485.0,485.0,485.0,493.0,493.0,507.0,722.0,722.0,722.0,680.0,680.0,680.0,483.0,483.0,483.0,577.0,577.0,577.0,577.0,636.0,636.0,636.0,636.0,597.0,597.0,127.0,156.0,239.0,511.0444444444444,545.4666666666667,611.2222222222222,470.0,459.0,483.0
0,583.0,549.0,680.0,489.0,216.0,629.0,508.0,508.0,508.0,509.0,509.0,509.0,486.0,486.0,486.0,486.0,583.0,583.0,583.0,583.0,475.0,475.0,475.0,475.0,489.0,489.0,507.0,507.0,507.0,459.0,459.0,459.0,549.0,549.0,549.0,549.0,485.0,485.0,485.0,485.0,493.0,493.0,493.0,493.0,216.0,216.0,680.0,680.0,680.0,483.0,483.0,483.0,577.0,577.0,577.0,577.0,636.0,636.0,636.0,636.0,597.0,597.0,597.0,597.0,629.0,629.0,113.0,399.0,239.0,511.75555555555553,522.9555555555555,612.2444444444444,475.0,216.0,483.0
0,583.0,549.0,636.0,519.0,412.0,556.0,509.0,509.0,509.0,486.0,486.0,486.0,486.0,583.0,583.0,583.0,583.0,475.0,475.0,475.0,475.0,489.0,489.0,489.0,489.0,519.0,459.0,459.0,459.0,549.0,549.0,549.0,549.0,485.0,485.0,485.0,485.0,493.0,493.0,493.0,493.0,216.0,216.0,216.0,216.0,412.0,483.0,483.0,483.0,577.0,577.0,577.0,577.0,636.0,636.0,636.0,636.0,597.0,597.0,597.0,597.0,629.0,629.0,629.0,629.0,556.0,113.0,399.0,239.0,509.5111111111111,500.9111111111111,611.7333333333333,475.0,216.0,483.0
0,583.0,549.0,636.0,519.0,434.0,594.0,486.0,486.0,486.0,583.0,583.0,583.0,583.0,475.0,475.0,475.0,475.0,489.0,489.0,489.0,489.0,519.0,519.0,519.0,519.0,519.0,549.0,549.0,549.0,485.0,485.0,485.0,485.0,493.0,493.0,493.0,493.0,216.0,216.0,216.0,216.0,412.0,412.0,412.0,434.0,434.0,577.0,577.0,577.0,636.0,636.0,636.0,636.0,597.0,597.0,597.0,597.0,629.0,629.0,629.0,629.0,556.0,556.0,556.0,594.0,594.0,113.0,368.0,239.0,509.02222222222224,486.3333333333333,607.8666666666667,475.0,216.0,556.0
0,583.0,493.0,636.0,506.0,383.0,607.0,583.0,583.0,475.0,475.0,475.0,475.0,489.0,489.0,489.0,489.0,519.0,519.0,519.0,519.0,519.0,519.0,519.0,519.0,506.0,506.0,485.0,485.0,493.0,493.0,493.0,493.0,216.0,216.0,216.0,216.0,412.0,412.0,412.0,434.0,434.0,434.0,434.0,434.0,383.0,383.0,636.0,636.0,597.0,597.0,597.0,597.0,629.0,629.0,629.0,629.0,556.0,556.0,556.0,594.0,594.0,594.0,594.0,594.0,607.0,607.0,113.0,368.0,239.0,510.8666666666667,471.55555555555554,604.2444444444444,475.0,216.0,556.0
0,519.0,493.0,629.0,480.0,464.0,528.0,475.0,475.0,489.0,489.0,489.0,489.0,519.0,519.0,519.0,519.0,519.0,519.0,519.0,519.0,506.0,506.0,506.0,506.0,480.0,480.0,493.0,493.0,216.0,216.0,216.0,216.0,412.0,412.0,412.0,434.0,434.0,434.0,434.0,434.0,383.0,383.0,383.0,383.0,464.0,464.0,597.0,597.0,629.0,629.0,629.0,629.0,556.0,556.0,556.0,594.0,594.0,594.0,594.0,594.0,607.0,607.0,607.0,607.0,528.0,528.0,113.0,368.0,239.0,508.15555555555557,462.26666666666665,596.5555555555555,475.0,216.0,528.0
0,519.0,477.0,629.0,458.0,477.0,535.0,489.0,489.0,519.0,519.0,519.0,519.0,519.0,519.0,519.0,519.0,506.0,506.0,506.0,506.0,480.0,480.0,480.0,480.0,458.0,458.0,216.0,216.0,412.0,412.0,412.0,434.0,434.0,434.0,434.0,434.0,383.0,383.0,383.0,383.0,464.0,464.0,464.0,464.0,477.0,477.0,629.0,629.0,556.0,556.0,556.0,594.0,594.0,594.0,594.0,594.0,607.0,607.0,607.0,607.0,528.0,528.0,528.0,528.0,535.0,535.0,125.0,368.0,239.0,503.0,454.6666666666667,592.7333333333333,458.0,216.0,528.0
0,519.0,477.0,607.0,508.0,410.0,463.0,519.0,519.0,519.0,519.0,519.0,519.0,506.0,506.0,506.0,506.0,480.0,480.0,480.0,480.0,458.0,458.0,458.0,458.0,508.0,508.0,412.0,434.0,434.0,434.0,434.0,434.0,383.0,383.0,383.0,383.0,464.0,464.0,464.0,464.0,477.0,477.0,477.0,477.0,410.0,410.0,556.0,594.0,594.0,594.0,594.0,594.0,607.0,607.0,607.0,607.0,528.0,528.0,528.0,528.0,535.0,535.0,535.0,535.0,463.0,463.0,125.0,342.0,259.0,502.15555555555557,443.3333333333333,582.4666666666667,458.0,383.0,463.0
0,528.0,492.0,620.0,528.0,492.0,620.0,519.0,506.0,506.0,506.0,506.0,480.0,480.0,480.0,480.0,458.0,458.0,458.0,458.0,508.0,508.0,508.0,508.0,508.0,528.0,528.0,434.0,383.0,383.0,383.0,383.0,464.0,464.0,464.0,464.0,477.0,477.0,477.0,477.0,410.0,410.0,410.0,410.0,410.0,492.0,492.0,594.0,607.0,607.0,607.0,607.0,528.0,528.0,528.0,528.0,535.0,535.0,535.0,535.0,463.0,463.0,463.0,463.0,463.0,620.0,620.0,125.0,333.0,173.0,503.8666666666667,436.1333333333333,568.7777777777778,458.0,383.0,463.0
0,579.0,492.0,620.0,579.0,486.0,588.0,506.0,480.0,480.0,480.0,480.0,458.0,458.0,458.0,458.0,508.0,508.0,508.0,508.0,508.0,528.0,528.0,528.0,528.0,579.0,579.0,383.0,464.0,464.0,464.0,464.0,477.0,477.0,477.0,477.0,410.0,410.0,410.0,410.0,410.0,492.0,492.0,492.0,492.0,486.0,486.0,607.0,528.0,528.0,528.0,528.0,535.0,535.0,535.0,535.0,463.0,463.0,463.0,463.0,463.0,620.0,620.0,620.0,620.0,588.0,588.0,125.0,333.0,173.0,508.84444444444443,434.8,575.3555555555556,458.0,383.0,463.0
0,579.0,546.0,620.0,527.0,546.0,605.0,480.0,458.0,458.0,458.0,458.0,508.0,508.0,508.0,508.0,508.0,528.0,528.0,528.0,528.0,579.0,579.0,579.0,579.0,527.0,527.0,464.0,477.0,477.0,477.0,477.0,410.0,410.0,410.0,410.0,410.0,492.0,492.0,492.0,492.0,486.0,486.0,486.0,486.0,546.0,546.0,528.0,535.0,535.0,535.0,535.0,463.0,463.0,463.0,463.0,463.0,620.0,620.0,620.0,620.0,588.0,588.0,588.0,588.0,605.0,605.0,125.0,330.0,173.0,510.4888888888889,434.7111111111111,574.4666666666667,458.0,410.0,463.0
0,579.0,595.0,627.0,533.0,595.0,627.0,458.0,458.0,458.0,508.0,508.0,508.0,508.0,508.0,528.0,528.0,528.0,528.0,579.0,579.0,579.0,579.0,527.0,527.0,527.0,533.0,477.0,477.0,477.0,410.0,410.0,410.0,410.0,410.0,492.0,492.0,492.0,492.0,486.0,486.0,486.0,486.0,546.0,546.0,546.0,595.0,535.0,535.0,535.0,463.0,463.0,463.0,463.0,463.0,620.0,620.0,620.0,620.0,588.0,588.0,588.0,588.0,605.0,605.0,605.0,627.0,121.0,379.0,166.0,508.1333333333333,438.5111111111111,573.5777777777778,458.0,410.0,463.0
0,579.0,609.0,649.0,535.0,609.0,649.0,508.0,508.0,508.0,508.0,528.0,528.0,528.0,528.0,579.0,579.0,579.0,579.0,527.0,527.0,527.0,533.0,533.0,533.0,535.0,535.0,410.0,410.0,410.0,410.0,492.0,492.0,492.0,492.0,486.0,486.0,486.0,486.0,546.0,546.0,546.0,595.0,595.0,595.0,609.0,609.0,463.0,463.0,463.0,463.0,620.0,620.0,620.0,620.0,588.0,588.0,588.0,588.0,605.0,605.0,605.0,627.0,627.0,627.0,649.0,649.0,121.0,393.0,186.0,513.3777777777777,448.2,577.2222222222222,508.0,410.0,463.0
0,579.0,647.0,657.0,514.0,647.0,657.0,528.0,528.0,528.0,528.0,579.0,579.0,579.0,579.0,527.0,527.0,527.0,533.0,533.0,533.0,535.0,535.0,535.0,535.0,514.0,514.0,492.0,492.0,492.0,492.0,486.0,486.0,486.0,486.0,546.0,546.0,546.0,595.0,595.0,595.0,609.0,609.0,609.0,609.0,647.0,647.0,620.0,620.0,620.0,620.0,588.0,588.0,588.0,588.0,605.0,605.0,605.0,627.0,627.0,627.0,649.0,649.0,649.0,649.0,657.0,657.0,121.0,264.0,194.0,516.5333333333333,484.8222222222222,579.3555555555556,514.0,486.0,588.0
0,579.0,647.0,679.0,506.0,617.0,679.0,528.0,579.0,579.0,579.0,579.0,527.0,527.0,527.0,533.0,533.0,533.0,535.0,535.0,535.0,535.0,514.0,514.0,514.0,514.0,506.0,492.0,486.0,486.0,486.0,486.0,546.0,546.0,546.0,595.0,595.0,595.0,609.0,609.0,609.0,609.0,647.0,647.0,647.0,647.0,617.0,620.0,588.0,588.0,588.0,588.0,605.0,605.0,605.0,627.0,627.0,627.0,649.0,649.0,649.0,649.0,657.0,657.0,657.0,657.0,679.0,121.0,264.0,216.0,516.0222222222222,499.8222222222222,586.5777777777778,506.0,486.0,588.0
0,539.0,647.0,774.0,539.0,587.0,774.0,527.0,527.0,527.0,533.0,533.0,533.0,535.0,535.0,535.0,535.0,514.0,514.0,514.0,514.0,506.0,506.0,506.0,506.0,539.0,539.0,546.0,546.0,546.0,595.0,595.0,595.0,609.0,609.0,609.0,609.0,647.0,647.0,647.0,647.0,617.0,617.0,617.0,617.0,587.0,587.0,605.0,605.0,605.0,627.0,627.0,627.0,649.0,649.0,649.0,649.0,657.0,657.0,657.0,657.0,679.0,679.0,679.0,679.0,774.0,774.0,121.0,264.0,311.0,516.0444444444445,518.8222222222222,600.2444444444444,506.0,546.0,605.0
0,539.0,647.0,874.0,525.0,592.0,874.0,533.0,533.0,535.0,535.0,535.0,535.0,514.0,514.0,514.0,514.0,506.0,506.0,506.0,506.0,539.0,539.0,539.0,539.0,539.0,525.0,595.0,595.0,609.0,609.0,609.0,609.0,647.0,647.0,647.0,647.0,617.0,617.0,617.0,617.0,587.0,587.0,587.0,587.0,587.0,592.0,627.0,627.0,649.0,649.0,649.0,649.0,657.0,657.0,657.0,657.0,679.0,679.0,679.0,679.0,774.0,774.0,774.0,774.0,774.0,874.0,121.0,237.0,411.0,518.6666666666666,537.0666666666667,617.3111111111111,506.0,587.0,627.0
0,539.0,647.0,910.0,528.0,512.0,910.0,535.0,535.0,514.0,514.0,514.0,514.0,506.0,506.0,506.0,506.0,539.0,539.0,539.0,539.0,539.0,525.0,525.0,525.0,528.0,528.0,609.0,609.0,647.0,647.0,647.0,647.0,617.0,617.0,617.0,617.0,587.0,587.0,587.0,587.0,587.0,592.0,592.0,592.0,512.0,512.0,649.0,649.0,657.0,657.0,657.0,657.0,679.0,679.0,679.0,679.0,774.0,774.0,774.0,774.0,774.0,874.0,874.0,874.0,910.0,910.0,121.0,237.0,447.0,522.8,544.8888888888889,649.6666666666666,506.0,512.0,649.0
0,539.0,647.0,946.0,447.0,641.0,946.0,514.0,514.0,506.0,506.0,506.0,506.0,539.0,539.0,539.0,539.0,539.0,525.0,525.0,525.0,528.0,528.0,528.0,528.0,447.0,447.0,647.0,647.0,617.0,617.0,617.0,617.0,587.0,587.0,587.0,587.0,587.0,592.0,592.0,592.0,512.0,512.0,512.0,512.0,641.0,641.0,657.0,657.0,679.0,679.0,679.0,679.0,774.0,774.0,774.0,774.0,774.0,874.0,874.0,874.0,910.0,910.0,910.0,910.0,946.0,946.0,132.0,237.0,483.0,525.4222222222222,553.7333333333333,684.6,447.0,512.0,657.0
0,539.0,641.0,946.0,535.0,581.0,880.0,506.0,506.0,539.0,539.0,539.0,539.0,539.0,525.0,525.0,525.0,528.0,528.0,528.0,528.0,447.0,447.0,447.0,447.0,535.0,535.0,617.0,617.0,587.0,587.0,587.0,587.0,587.0,592.0,592.0,592.0,512.0,512.0,512.0,512.0,641.0,641.0,641.0,641.0,581.0,581.0,679.0,679.0,774.0,774.0,774.0,774.0,774.0,874.0,874.0,874.0,910.0,910.0,910.0,910.0,946.0,946.0,946.0,946.0,880.0,880.0,132.0,237.0,483.0,523.9111111111112,571.6,724.6,447.0,512.0,679.0
0,670.0,641.0,990.0,670.0,423.0,990.0,539.0,539.0,539.0,525.0,525.0,525.0,528.0,528.0,528.0,528.0,447.0,447.0,447.0,447.0,535.0,535.0,535.0,535.0,670.0,670.0,587.0,587.0,587.0,592.0,592.0,592.0,512.0,512.0,512.0,512.0,641.0,641.0,641.0,641.0,581.0,581.0,581.0,581.0,423.0,423.0,774.0,774.0,774.0,874.0,874.0,874.0,910.0,910.0,910.0,910.0,946.0,946.0,946.0,946.0,880.0,880.0,880.0,880.0,990.0,990.0,223.0,224.0,402.0,530.9777777777778,574.3111111111111,756.0888888888888,447.0,423.0,774.0
0,670.0,641.0,990.0,574.0,413.0,976.0,525.0,525.0,525.0,528.0,528.0,528.0,528.0,447.0,447.0,447.0,447.0,535.0,535.0,535.0,535.0,670.0,670.0,670.0,574.0,574.0,592.0,592.0,592.0,512.0,512.0,512.0,512.0,641.0,641.0,641.0,641.0,581.0,581.0,581.0,581.0,423.0,423.0,423.0,413.0,413.0,874.0,874.0,874.0,910.0,910.0,910.0,910.0,946.0,946.0,946.0,946.0,880.0,880.0,880.0,880.0,990.0,990.0,990.0,976.0,976.0,223.0,234.0,402.0,533.9111111111112,569.5333333333333,781.5555555555555,447.0,413.0,874.0
0,670.0,641.0,990.0,573.0,291.0,908.0,528.0,528.0,528.0,447.0,447.0,447.0,447.0,535.0,535.0,535.0,535.0,670.0,670.0,670.0,574.0,574.0,574.0,574.0,573.0,573.0,512.0,512.0,512.0,641.0,641.0,641.0,641.0,581.0,581.0,581.0,581.0,423.0,423.0,423.0,413.0,413.0,413.0,413.0,291.0,291.0,910.0,910.0,910.0,946.0,946.0,946.0,946.0,880.0,880.0,880.0,880.0,990.0,990.0,990.0,976.0,976.0,976.0,976.0,908.0,908.0,223.0,356.0,385.0,535.7333333333333,554.9555555555555,812.2666666666667,447.0,291.0,880.0
0,670.0,641.0,990.0,502.0,400.0,770.0,447.0,447.0,447.0,447.0,535.0,535.0,535.0,535.0,670.0,670.0,670.0,574.0,574.0,574.0,574.0,573.0,573.0,573.0,573.0,502.0,641.0,641.0,641.0,641.0,581.0,581.0,581.0,581.0,423.0,423.0,423.0,413.0,413.0,413.0,413.0,291.0,291.0,291.0,291.0,400.0,946.0,946.0,946.0,946.0,880.0,880.0,880.0,880.0,990.0,990.0,990.0,976.0,976.0,976.0,976.0,908.0,908.0,908.0,908.0,770.0,223.0,356.0,363.0,536.9555555555555,538.2,828.4222222222222,447.0,291.0,770.0
0,670.0,641.0,990.0,546.0,288.0,812.0,447.0,535.0,535.0,535.0,535.0,670.0,670.0,670.0,574.0,574.0,574.0,574.0,573.0,573.0,573.0,573.0,502.0,502.0,546.0,546.0,641.0,581.0,581.0,581.0,581.0,423.0,423.0,423.0,413.0,413.0,413.0,413.0,291.0,291.0,291.0,291.0,400.0,400.0,288.0,288.0,946.0,880.0,880.0,880.0,880.0,990.0,990.0,990.0,976.0,976.0,976.0,976.0,908.0,908.0,908.0,908.0,770.0,770.0,812.0,812.0,223.0,359.0,341.0,536.7555555555556,519.6,838.8444444444444,447.0,288.0,770.0
0,670.0,581.0,990.0,540.0,393.0,671.0,535.0,670.0,670.0,670.0,574.0,574.0,574.0,574.0,573.0,573.0,573.0,573.0,502.0,502.0,546.0,546.0,546.0,546.0,540.0,540.0,581.0,423.0,423.0,423.0,413.0,413.0,413.0,413.0,291.0,291.0,291.0,291.0,400.0,400.0,288.0,288.0,288.0,288.0,393.0,393.0,880.0,990.0,990.0,990.0,976.0,976.0,976.0,976.0,908.0,908.0,908.0,908.0,770.0,770.0,812.0,812.0,812.0,812.0,671.0,671.0,223.0,359.0,333.0,538.4,494.0444444444444,846.7111111111111,502.0,288.0,671.0
0,574.0,413.0,976.0,470.0,366.0,746.0,574.0,574.0,574.0,574.0,573.0,573.0,573.0,573.0,502.0,502.0,546.0,546.0,546.0,546.0,540.0,540.0,540.0,540.0,470.0,470.0,413.0,413.0,413.0,413.0,291.0,291.0,291.0,291.0,400.0,400.0,288.0,288.0,288.0,288.0,393.0,393.0,393.0,393.0,366.0,366.0,976.0,976.0,976.0,976.0,908.0,908.0,908.0,908.0,770.0,770.0,812.0,812.0,812.0,812.0,671.0,671.0,671.0,671.0,746.0,746.0,223.0,353.0,319.0,537.9555555555555,471.6,850.3111111111111,470.0,288.0,671.0
0,574.0,413.0,976.0,542.0,373.0,654.0,574.0,573.0,573.0,573.0,573.0,502.0,502.0,546.0,546.0,546.0,546.0,540.0,540.0,540.0,540.0,470.0,470.0,470.0,470.0,542.0,413.0,291.0,291.0,291.0,291.0,400.0,400.0,288.0,288.0,288.0,288.0,393.0,393.0,393.0,393.0,366.0,366.0,366.0,366.0,373.0,976.0,908.0,908.0,908.0,908.0,770.0,770.0,812.0,812.0,812.0,812.0,671.0,671.0,671.0,671.0,746.0,746.0,746.0,746.0,654.0,223.0,353.0,336.0,536.4222222222222,455.68888888888887,850.6222222222223,470.0,288.0,654.0
0,573.0,400.0,908.0,529.0,346.0,623.0,573.0,573.0,502.0,502.0,546.0,546.0,546.0,546.0,540.0,540.0,540.0,540.0,470.0,470.0,470.0,470.0,542.0,542.0,542.0,529.0,291.0,291.0,400.0,400.0,288.0,288.0,288.0,288.0,393.0,393.0,393.0,393.0,366.0,366.0,366.0,366.0,373.0,373.0,373.0,346.0,908.0,908.0,770.0,770.0,812.0,812.0,812.0,812.0,671.0,671.0,671.0,671.0,746.0,746.0,746.0,746.0,654.0,654.0,654.0,623.0,223.0,353.0,367.0,536.3333333333334,440.8222222222222,841.9333333333333,470.0,288.0,623.0
0,546.0,492.0,812.0,428.0,492.0,609.0,502.0,546.0,546.0,546.0,546.0,540.0,540.0,540.0,540.0,470.0,470.0,470.0,470.0,542.0,542.0,542.0,529.0,529.0,529.0,428.0,400.0,288.0,288.0,288.0,288.0,393.0,393.0,393.0,393.0,366.0,366.0,366.0,366.0,373.0,373.0,373.0,346.0,346.0,346.0,492.0,770.0,812.0,812.0,812.0,812.0,671.0,671.0,671.0,671.0,746.0,746.0,746.0,746.0,654.0,654.0,654.0,623.0,623.0,623.0,609.0,242.0,353.0,381.0,534.0444444444445,427.77777777777777,827.1111111111111,428.0,288.0,609.0
0,542.0,492.0,746.0,488.0,421.0,616.0,540.0,540.0,540.0,540.0,470.0,470.0,470.0,470.0,542.0,542.0,542.0,529.0,529.0,529.0,428.0,428.0,428.0,428.0,488.0,488.0,393.0,393.0,393.0,393.0,366.0,366.0,366.0,366.0,373.0,373.0,373.0,346.0,346.0,346.0,492.0,492.0,492.0,492.0,421.0,421.0,671.0,671.0,671.0,671.0,746.0,746.0,746.0,746.0,654.0,654.0,654.0,623.0,623.0,623.0,609.0,609.0,609.0,609.0,616.0,616.0,242.0,353.0,381.0,525.6666666666666,420.6222222222222,794.7777777777778,428.0,346.0,609.0
0,542.0,492.0,746.0,515.0,411.0,606.0,470.0,470.0,470.0,470.0,542.0,542.0,542.0,529.0,529.0,529.0,428.0,428.0,428.0,428.0,488.0,488.0,488.0,488.0,515.0,515.0,366.0,366.0,366.0,366.0,373.0,373.0,373.0,346.0,346.0,346.0,492.0,492.0,492.0,492.0,421.0,421.0,421.0,421.0,411.0,411.0,746.0,746.0,746.0,746.0,654.0,654.0,654.0,623.0,623.0,623.0,609.0,609.0,609.0,609.0,616.0,616.0,616.0,616.0,606.0,606.0,242.0,293.0,384.0,530.5111111111111,400.6222222222222,765.0,428.0,346.0,606.0
0,542.0,529.0,654.0,486.0,529.0,558.0,542.0,542.0,542.0,529.0,529.0,529.0,428.0,428.0,428.0,428.0,488.0,488.0,488.0,488.0,515.0,515.0,515.0,515.0,486.0,486.0,373.0,373.0,373.0,346.0,346.0,346.0,492.0,492.0,492.0,492.0,421.0,421.0,421.0,421.0,411.0,411.0,411.0,411.0,529.0,529.0,654.0,654.0,654.0,623.0,623.0,623.0,609.0,609.0,609.0,609.0,616.0,616.0,616.0,616.0,606.0,606.0,606.0,606.0,558.0,558.0,242.0,293.0,432.0,528.5333333333333,390.75555555555553,738.5111111111111,428.0,346.0,558.0
0,529.0,586.0,623.0,468.0,586.0,458.0,529.0,529.0,428.0,428.0,428.0,428.0,488.0,488.0,488.0,488.0,515.0,515.0,515.0,515.0,486.0,486.0,486.0,486.0,486.0,468.0,346.0,346.0,492.0,492.0,492.0,492.0,421.0,421.0,421.0,421.0,411.0,411.0,411.0,411.0,529.0,529.0,529.0,529.0,529.0,586.0,623.0,623.0,609.0,609.0,609.0,609.0,616.0,616.0,616.0,616.0,606.0,606.0,606.0,606.0,558.0,558.0,558.0,558.0,558.0,458.0,146.0,298.0,518.0,512.8222222222222,401.6666666666667,698.2,428.0,346.0,458.0
0,515.0,588.0,616.0,509.0,588.0,467.0,428.0,488.0,488.0,488.0,488.0,515.0,515.0,515.0,515.0,486.0,486.0,486.0,486.0,486.0,468.0,468.0,468.0,468.0,509.0,509.0,492.0,421.0,421.0,421.0,421.0,411.0,411.0,411.0,411.0,529.0,529.0,529.0,529.0,529.0,586.0,586.0,586.0,586.0,588.0,588.0,609.0,616.0,616.0,616.0,616.0,606.0,606.0,606.0,606.0,558.0,558.0,558.0,558.0,558.0,458.0,458.0,458.0,458.0,467.0,467.0,145.0,300.0,450.0,502.9111111111111,426.4,644.0666666666667,428.0,411.0,458.0
0,515.0,650.0,616.0,482.0,650.0,576.0,488.0,515.0,515.0,515.0,515.0,486.0,486.0,486.0,486.0,486.0,468.0,468.0,468.0,468.0,509.0,509.0,509.0,509.0,509.0,482.0,421.0,411.0,411.0,411.0,411.0,529.0,529.0,529.0,529.0,529.0,586.0,586.0,586.0,586.0,588.0,588.0,588.0,588.0,588.0,650.0,616.0,606.0,606.0,606.0,606.0,558.0,558.0,558.0,558.0,558.0,458.0,458.0,458.0,458.0,467.0,467.0,467.0,467.0,467.0,576.0,118.0,362.0,354.0,499.77777777777777,449.3333333333333,613.4222222222222,468.0,411.0,458.0
0,515.0,688.0,606.0,508.0,688.0,569.0,515.0,486.0,486.0,486.0,486.0,486.0,468.0,468.0,468.0,468.0,509.0,509.0,509.0,509.0,509.0,482.0,482.0,482.0,508.0,508.0,411.0,529.0,529.0,529.0,529.0,529.0,586.0,586.0,586.0,586.0,588.0,588.0,588.0,588.0,588.0,650.0,650.0,650.0,688.0,688.0,606.0,558.0,558.0,558.0,558.0,558.0,458.0,458.0,458.0,458.0,467.0,467.0,467.0,467.0,467.0,576.0,576.0,576.0,569.0,569.0,114.0,342.0,288.0,495.24444444444447,483.2,592.1333333333333,468.0,411.0,458.0
0,521.0,688.0,580.0,521.0,529.0,580.0,486.0,486.0,468.0,468.0,468.0,468.0,509.0,509.0,509.0,509.0,509.0,482.0,482.0,482.0,508.0,508.0,508.0,508.0,521.0,521.0,529.0,529.0,586.0,586.0,586.0,586.0,588.0,588.0,588.0,588.0,588.0,650.0,650.0,650.0,688.0,688.0,688.0,688.0,529.0,529.0,558.0,558.0,458.0,458.0,458.0,458.0,467.0,467.0,467.0,467.0,467.0,576.0,576.0,576.0,569.0,569.0,569.0,569.0,580.0,580.0,114.0,342.0,288.0,492.97777777777776,502.35555555555555,583.5555555555555,468.0,529.0,458.0
0,544.0,688.0,580.0,544.0,643.0,573.0,468.0,468.0,468.0,509.0,509.0,509.0,509.0,509.0,482.0,482.0,482.0,508.0,508.0,508.0,508.0,521.0,521.0,521.0,544.0,544.0,586.0,586.0,586.0,588.0,588.0,588.0,588.0,588.0,650.0,650.0,650.0,688.0,688.0,688.0,688.0,529.0,529.0,529.0,643.0,643.0,458.0,458.0,458.0,467.0,467.0,467.0,467.0,467.0,576.0,576.0,576.0,569.0,569.0,569.0,569.0,580.0,580.0,580.0,573.0,573.0,116.0,342.0,288.0,497.4,518.2888888888889,572.1777777777778,468.0,529.0,458.0
0,544.0,688.0,659.0,475.0,585.0,659.0,509.0,509.0,509.0,509.0,482.0,482.0,482.0,508.0,508.0,508.0,508.0,521.0,521.0,521.0,544.0,544.0,544.0,544.0,475.0,475.0,588.0,588.0,588.0,588.0,650.0,650.0,650.0,688.0,688.0,688.0,688.0,529.0,529.0,529.0,643.0,643.0,643.0,643.0,585.0,585.0,467.0,467.0,467.0,467.0,576.0,576.0,576.0,569.0,569.0,569.0,569.0,580.0,580.0,580.0,573.0,573.0,573.0,573.0,659.0,659.0,116.0,342.0,201.0,496.1111111111111,539.8666666666667,566.7555555555556,475.0,529.0,467.0
0,544.0,688.0,659.0,541.0,380.0,585.0,482.0,482.0,482.0,508.0,508.0,508.0,508.0,521.0,521.0,521.0,544.0,544.0,544.0,544.0,475.0,475.0,475.0,475.0,541.0,541.0,650.0,650.0,650.0,688.0,688.0,688.0,688.0,529.0,529.0,529.0,643.0,643.0,643.0,643.0,585.0,585.0,585.0,585.0,380.0,380.0,576.0,576.0,576.0,569.0,569.0,569.0,569.0,580.0,580.0,580.0,573.0,573.0,573.0,573.0,659.0,659.0,659.0,659.0,585.0,585.0,116.0,308.0,201.0,496.4888888888889,548.7555555555556,566.9777777777778,475.0,380.0,569.0
0,544.0,688.0,659.0,525.0,490.0,603.0,508.0,508.0,508.0,521.0,521.0,521.0,544.0,544.0,544.0,544.0,475.0,475.0,475.0,475.0,541.0,541.0,541.0,541.0,541.0,525.0,688.0,688.0,688.0,529.0,529.0,529.0,643.0,643.0,643.0,643.0,585.0,585.0,585.0,585.0,380.0,380.0,380.0,380.0,380.0,490.0,569.0,569.0,569.0,580.0,580.0,580.0,573.0,573.0,573.0,573.0,659.0,659.0,659.0,659.0,585.0,585.0,585.0,585.0,585.0,603.0,76.0,308.0,201.0,504.84444444444443,542.8222222222222,565.0888888888888,475.0,380.0,569.0
0,544.0,643.0,659.0,542.0,369.0,608.0,521.0,521.0,544.0,544.0,544.0,544.0,475.0,475.0,475.0,475.0,541.0,541.0,541.0,541.0,541.0,525.0,525.0,525.0,542.0,542.0,529.0,529.0,643.0,643.0,643.0,643.0,585.0,585.0,585.0,585.0,380.0,380.0,380.0,380.0,380.0,490.0,490.0,490.0,369.0,369.0,580.0,580.0,573.0,573.0,573.0,573.0,659.0,659.0,659.0,659.0,585.0,585.0,585.0,585.0,585.0,603.0,603.0,603.0,608.0,608.0,76.0,319.0,201.0,508.2888888888889,543.8,564.3777777777777,475.0,369.0,573.0
0,544.0,643.0,659.0,538.0,523.0,631.0,544.0,544.0,544.0,475.0,475.0,475.0,475.0,541.0,541.0,541.0,541.0,525.0,525.0,525.0,542.0,542.0,542.0,542.0,538.0,538.0,643.0,643.0,643.0,585.0,585.0,585.0,585.0,380.0,380.0,380.0,380.0,490.0,490.0,490.0,369.0,369.0,369.0,369.0,523.0,523.0,573.0,573.0,573.0,659.0,659.0,659.0,659.0,585.0,585.0,585.0,585.0,603.0,603.0,603.0,608.0,608.0,608.0,608.0,631.0,631.0,76.0,319.0,201.0,510.0,544.4222222222222,565.0222222222222,475.0,369.0,573.0
0,542.0,585.0,659.0,492.0,461.0,568.0,475.0,475.0,541.0,541.0,541.0,541.0,541.0,525.0,525.0,525.0,542.0,542.0,542.0,542.0,538.0,538.0,538.0,538.0,492.0,492.0,585.0,585.0,380.0,380.0,380.0,380.0,380.0,490.0,490.0,490.0,369.0,369.0,369.0,369.0,523.0,523.0,523.0,523.0,461.0,461.0,659.0,659.0,585.0,585.0,585.0,585.0,585.0,603.0,603.0,603.0,608.0,608.0,608.0,608.0,631.0,631.0,631.0,631.0,568.0,568.0,76.0,319.0,201.0,513.7333333333333,541.0,570.3333333333334,475.0,369.0,568.0
0,542.0,523.0,631.0,526.0,461.0,497.0,541.0,541.0,541.0,525.0,525.0,525.0,542.0,542.0,542.0,542.0,538.0,538.0,538.0,538.0,492.0,492.0,492.0,492.0,526.0,526.0,380.0,380.0,380.0,490.0,490.0,490.0,369.0,369.0,369.0,369.0,523.0,523.0,523.0,523.0,461.0,461.0,461.0,461.0,461.0,461.0,585.0,585.0,585.0,603.0,603.0,603.0,608.0,608.0,608.0,608.0,631.0,631.0,631.0,631.0,568.0,568.0,568.0,568.0,497.0,497.0,69.0,319.0,192.0,517.3777777777777,529.8888888888889,576.9555555555555,492.0,369.0,497.0
0,542.0,523.0,631.0,533.0,375.0,417.0,525.0,525.0,542.0,542.0,542.0,542.0,538.0,538.0,538.0,538.0,492.0,492.0,492.0,492.0,526.0,526.0,526.0,526.0,533.0,533.0,490.0,490.0,369.0,369.0,369.0,369.0,523.0,523.0,523.0,523.0,461.0,461.0,461.0,461.0,461.0,461.0,461.0,461.0,375.0,375.0,603.0,603.0,608.0,608.0,608.0,608.0,631.0,631.0,631.0,631.0,568.0,568.0,568.0,568.0,497.0,497.0,497.0,497.0,417.0,417.0,69.0,319.0,242.0,519.2,514.7777777777778,576.0666666666667,492.0,369.0,417.0
0,542.0,523.0,631.0,477.0,425.0,557.0,542.0,542.0,538.0,538.0,538.0,538.0,492.0,492.0,492.0,492.0,526.0,526.0,526.0,526.0,533.0,533.0,533.0,533.0,477.0,477.0,369.0,369.0,523.0,523.0,523.0,523.0,461.0,461.0,461.0,461.0,461.0,461.0,461.0,461.0,375.0,375.0,375.0,375.0,425.0,425.0,608.0,608.0,631.0,631.0,631.0,631.0,568.0,568.0,568.0,568.0,497.0,497.0,497.0,497.0,417.0,417.0,417.0,417.0,557.0,557.0,69.0,319.0,242.0,520.6444444444444,493.93333333333334,570.5777777777778,477.0,369.0,417.0
0,538.0,523.0,631.0,473.0,514.0,578.0,538.0,538.0,492.0,492.0,492.0,492.0,526.0,526.0,526.0,526.0,533.0,533.0,533.0,533.0,477.0,477.0,477.0,477.0,473.0,473.0,523.0,523.0,461.0,461.0,461.0,461.0,461.0,461.0,461.0,461.0,375.0,375.0,375.0,375.0,425.0,425.0,425.0,425.0,514.0,514.0,631.0,631.0,568.0,568.0,568.0,568.0,497.0,497.0,497.0,497.0,417.0,417.0,417.0,417.0,557.0,557.0,557.0,557.0,578.0,578.0,71.0,274.0,242.0,517.7111111111111,474.5111111111111,570.4444444444445,473.0,375.0,417.0
0,606.0,514.0,578.0,606.0,214.0,501.0,492.0,526.0,526.0,526.0,526.0,533.0,533.0,533.0,533.0,477.0,477.0,477.0,477.0,473.0,473.0,473.0,473.0,473.0,606.0,606.0,461.0,461.0,461.0,461.0,461.0,375.0,375.0,375.0,375.0,425.0,425.0,425.0,425.0,514.0,514.0,514.0,514.0,514.0,214.0,214.0,568.0,497.0,497.0,497.0,497.0,417.0,417.0,417.0,417.0,557.0,557.0,557.0,557.0,578.0,578.0,578.0,578.0,578.0,501.0,501.0,133.0,429.0,242.0,515.8888888888889,463.97777777777776,568.7111111111111,473.0,214.0,417.0
0,606.0,514.0,578.0,513.0,441.0,414.0,526.0,533.0,533.0,533.0,533.0,477.0,477.0,477.0,477.0,473.0,473.0,473.0,473.0,473.0,606.0,606.0,606.0,606.0,513.0,513.0,461.0,375.0,375.0,375.0,375.0,425.0,425.0,425.0,425.0,514.0,514.0,514.0,514.0,514.0,214.0,214.0,214.0,214.0,441.0,441.0,497.0,417.0,417.0,417.0,417.0,557.0,557.0,557.0,557.0,578.0,578.0,578.0,578.0,578.0,501.0,501.0,501.0,501.0,414.0,414.0,133.0,371.0,245.0,521.7111111111111,428.97777777777776,553.0222222222222,473.0,214.0,414.0
0,606.0,514.0,578.0,446.0,487.0,569.0,533.0,477.0,477.0,477.0,477.0,473.0,473.0,473.0,473.0,473.0,606.0,606.0,606.0,606.0,513.0,513.0,513.0,513.0,446.0,446.0,375.0,425.0,425.0,425.0,425.0,514.0,514.0,514.0,514.0,514.0,214.0,214.0,214.0,214.0,441.0,441.0,441.0,441.0,487.0,487.0,417.0,557.0,557.0,557.0,557.0,578.0,578.0,578.0,578.0,578.0,501.0,501.0,501.0,501.0,414.0,414.0,414.0,414.0,569.0,569.0,160.0,309.0,217.0,519.1777777777778,427.3333333333333,541.4222222222222,446.0,214.0,414.0
0,606.0,566.0,578.0,516.0,566.0,567.0,477.0,473.0,473.0,473.0,473.0,473.0,606.0,606.0,606.0,606.0,513.0,513.0,513.0,513.0,446.0,446.0,446.0,446.0,516.0,516.0,425.0,514.0,514.0,514.0,514.0,514.0,214.0,214.0,214.0,214.0,441.0,441.0,441.0,441.0,487.0,487.0,487.0,487.0,566.0,566.0,557.0,578.0,578.0,578.0,578.0,578.0,501.0,501.0,501.0,501.0,414.0,414.0,414.0,414.0,569.0,569.0,569.0,569.0,567.0,567.0,160.0,352.0,217.0,514.2,437.9111111111111,539.5111111111111,446.0,214.0,414.0
0,606.0,566.0,578.0,411.0,536.0,509.0,473.0,473.0,606.0,606.0,606.0,606.0,513.0,513.0,513.0,513.0,446.0,446.0,446.0,446.0,516.0,516.0,516.0,516.0,411.0,411.0,514.0,514.0,214.0,214.0,214.0,214.0,441.0,441.0,441.0,441.0,487.0,487.0,487.0,487.0,566.0,566.0,566.0,566.0,536.0,536.0,578.0,578.0,501.0,501.0,501.0,501.0,414.0,414.0,414.0,414.0,569.0,569.0,569.0,569.0,567.0,567.0,567.0,567.0,509.0,509.0,195.0,352.0,217.0,507.97777777777776,448.7111111111111,533.5111111111111,411.0,214.0,414.0
0,606.0,566.0,615.0,512.0,506.0,615.0,606.0,606.0,606.0,513.0,513.0,513.0,513.0,446.0,446.0,446.0,446.0,516.0,516.0,516.0,516.0,411.0,411.0,411.0,512.0,512.0,214.0,214.0,214.0,441.0,441.0,441.0,441.0,487.0,487.0,487.0,487.0,566.0,566.0,566.0,566.0,536.0,536.0,536.0,506.0,506.0,501.0,501.0,501.0,414.0,414.0,414.0,414.0,569.0,569.0,569.0,569.0,567.0,567.0,567.0,567.0,509.0,509.0,509.0,615.0,615.0,195.0,352.0,217.0,503.8222222222222,455.0888888888889,531.1111111111111,411.0,214.0,414.0
0,516.0,686.0,615.0,515.0,686.0,527.0,513.0,513.0,513.0,446.0,446.0,446.0,446.0,516.0,516.0,516.0,516.0,411.0,411.0,411.0,512.0,512.0,512.0,512.0,515.0,515.0,441.0,441.0,441.0,487.0,487.0,487.0,487.0,566.0,566.0,566.0,566.0,536.0,536.0,536.0,506.0,506.0,506.0,506.0,686.0,686.0,414.0,414.0,414.0,569.0,569.0,569.0,569.0,567.0,567.0,567.0,567.0,509.0,509.0,509.0,615.0,615.0,615.0,615.0,527.0,527.0,195.0,472.0,201.0,502.6666666666667,462.9555555555556,527.1777777777778,411.0,441.0,414.0
0,516.0,686.0,615.0,471.0,677.0,501.0,446.0,446.0,446.0,446.0,516.0,516.0,516.0,516.0,411.0,411.0,411.0,512.0,512.0,512.0,512.0,515.0,515.0,515.0,471.0,471.0,487.0,487.0,487.0,487.0,566.0,566.0,566.0,566.0,536.0,536.0,536.0,506.0,506.0,506.0,506.0,686.0,686.0,686.0,677.0,677.0,569.0,569.0,569.0,569.0,567.0,567.0,567.0,567.0,509.0,509.0,509.0,615.0,615.0,615.0,615.0,527.0,527.0,527.0,501.0,501.0,195.0,472.0,201.0,502.24444444444447,477.55555555555554,523.2888888888889,411.0,487.0,501.0
0,516.0,686.0,615.0,516.0,595.0,526.0,516.0,516.0,516.0,516.0,411.0,411.0,411.0,512.0,512.0,512.0,512.0,515.0,515.0,515.0,471.0,471.0,471.0,471.0,471.0,516.0,566.0,566.0,566.0,566.0,536.0,536.0,536.0,506.0,506.0,506.0,506.0,686.0,686.0,686.0,677.0,677.0,677.0,677.0,677.0,595.0,567.0,567.0,567.0,567.0,509.0,509.0,509.0,615.0,615.0,615.0,615.0,527.0,527.0,527.0,501.0,501.0,501.0,501.0,501.0,526.0,195.0,472.0,201.0,498.35555555555555,494.93333333333334,524.2,411.0,506.0,501.0
0,566.0,686.0,670.0,566.0,629.0,670.0,411.0,411.0,411.0,512.0,512.0,512.0,512.0,515.0,515.0,515.0,471.0,471.0,471.0,471.0,471.0,516.0,516.0,516.0,566.0,566.0,536.0,536.0,536.0,506.0,506.0,506.0,506.0,686.0,686.0,686.0,677.0,677.0,677.0,677.0,677.0,595.0,595.0,595.0,629.0,629.0,509.0,509.0,509.0,615.0,615.0,615.0,615.0,527.0,527.0,527.0,501.0,501.0,501.0,501.0,501.0,526.0,526.0,526.0,670.0,670.0,195.0,472.0,256.0,499.06666666666666,516.0,540.2888888888889,411.0,506.0,501.0
0,566.0,686.0,670.0,487.0,447.0,650.0,512.0,512.0,512.0,515.0,515.0,515.0,471.0,471.0,471.0,471.0,471.0,516.0,516.0,516.0,566.0,566.0,566.0,566.0,487.0,487.0,506.0,506.0,506.0,686.0,686.0,686.0,677.0,677.0,677.0,677.0,677.0,595.0,595.0,595.0,629.0,629.0,629.0,629.0,447.0,447.0,615.0,615.0,615.0,527.0,527.0,527.0,501.0,501.0,501.0,501.0,501.0,526.0,526.0,526.0,670.0,670.0,670.0,670.0,650.0,650.0,195.0,472.0,256.0,503.46666666666664,526.0444444444445,549.4444444444445,471.0,447.0,501.0
0,566.0,686.0,670.0,516.0,553.0,558.0,512.0,515.0,515.0,515.0,471.0,471.0,471.0,471.0,471.0,516.0,516.0,516.0,566.0,566.0,566.0,566.0,487.0,487.0,487.0,516.0,506.0,686.0,686.0,686.0,677.0,677.0,677.0,677.0,677.0,595.0,595.0,595.0,629.0,629.0,629.0,629.0,447.0,447.0,447.0,553.0,615.0,527.0,527.0,527.0,501.0,501.0,501.0,501.0,501.0,526.0,526.0,526.0,670.0,670.0,670.0,670.0,650.0,650.0,650.0,558.0,195.0,472.0,256.0,504.73333333333335,525.4222222222222,550.6,471.0,447.0,501.0
0,566.0,677.0,670.0,496.0,666.0,564.0,471.0,471.0,471.0,471.0,471.0,516.0,516.0,516.0,566.0,566.0,566.0,566.0,487.0,487.0,487.0,516.0,516.0,516.0,496.0,496.0,677.0,677.0,677.0,677.0,677.0,595.0,595.0,595.0,629.0,629.0,629.0,629.0,447.0,447.0,447.0,553.0,553.0,553.0,666.0,666.0,501.0,501.0,501.0,501.0,501.0,526.0,526.0,526.0,670.0,670.0,670.0,670.0,650.0,650.0,650.0,558.0,558.0,558.0,564.0,564.0,195.0,472.0,256.0,504.7111111111111,540.5777777777778,550.8,471.0,447.0,501.0
0,566.0,734.0,670.0,423.0,734.0,484.0,471.0,516.0,516.0,516.0,566.0,566.0,566.0,566.0,487.0,487.0,487.0,516.0,516.0,516.0,496.0,496.0,496.0,496.0,423.0,423.0,677.0,595.0,595.0,595.0,629.0,629.0,629.0,629.0,447.0,447.0,447.0,553.0,553.0,553.0,666.0,666.0,666.0,666.0,734.0,734.0,501.0,526.0,526.0,526.0,670.0,670.0,670.0,670.0,650.0,650.0,650.0,558.0,558.0,558.0,564.0,564.0,564.0,564.0,484.0,484.0,155.0,293.0,256.0,493.75555555555553,578.7333333333333,554.7777777777778,423.0,447.0,484.0
0,573.0,734.0,670.0,573.0,568.0,507.0,516.0,566.0,566.0,566.0,566.0,487.0,487.0,487.0,516.0,516.0,516.0,496.0,496.0,496.0,496.0,423.0,423.0,423.0,573.0,573.0,595.0,629.0,629.0,629.0,629.0,447.0,447.0,447.0,553.0,553.0,553.0,666.0,666.0,666.0,666.0,734.0,734.0,734.0,568.0,568.0,526.0,670.0,670.0,670.0,670.0,650.0,650.0,650.0,558.0,558.0,558.0,564.0,564.0,564.0,564.0,484.0,484.0,484.0,507.0,507.0,162.0,287.0,186.0,494.4222222222222,590.8888888888889,560.4666666666667,423.0,447.0,484.0
0,573.0,734.0,670.0,491.0,608.0,580.0,566.0,487.0,487.0,487.0,516.0,516.0,516.0,496.0,496.0,496.0,496.0,423.0,423.0,423.0,573.0,573.0,573.0,573.0,491.0,491.0,629.0,447.0,447.0,447.0,553.0,553.0,553.0,666.0,666.0,666.0,666.0,734.0,734.0,734.0,568.0,568.0,568.0,568.0,608.0,608.0,670.0,650.0,650.0,650.0,558.0,558.0,558.0,564.0,564.0,564.0,564.0,484.0,484.0,484.0,507.0,507.0,507.0,507.0,580.0,580.0,162.0,287.0,186.0,502.06666666666666,599.8666666666667,558.2,423.0,447.0,484.0
0,573.0,734.0,650.0,476.0,473.0,620.0,487.0,516.0,516.0,516.0,496.0,496.0,496.0,496.0,423.0,423.0,423.0,573.0,573.0,573.0,573.0,491.0,491.0,491.0,491.0,476.0,447.0,553.0,553.0,553.0,666.0,666.0,666.0,666.0,734.0,734.0,734.0,568.0,568.0,568.0,568.0,608.0,608.0,608.0,608.0,473.0,650.0,558.0,558.0,558.0,564.0,564.0,564.0,564.0,484.0,484.0,484.0,507.0,507.0,507.0,507.0,580.0,580.0,580.0,580.0,620.0,162.0,287.0,186.0,500.06666666666666,599.6666666666666,559.9555555555555,423.0,447.0,484.0
0,573.0,734.0,620.0,526.0,571.0,608.0,496.0,496.0,496.0,496.0,423.0,423.0,423.0,573.0,573.0,573.0,573.0,491.0,491.0,491.0,491.0,476.0,476.0,476.0,526.0,526.0,666.0,666.0,666.0,666.0,734.0,734.0,734.0,568.0,568.0,568.0,568.0,608.0,608.0,608.0,608.0,473.0,473.0,473.0,571.0,571.0,564.0,564.0,564.0,564.0,484.0,484.0,484.0,507.0,507.0,507.0,507.0,580.0,580.0,580.0,580.0,620.0,620.0,620.0,608.0,608.0,150.0,287.0,186.0,505.73333333333335,597.7555555555556,568.0,423.0,473.0,484.0
0,573.0,734.0,620.0,554.0,364.0,516.0,423.0,423.0,423.0,573.0,573.0,573.0,573.0,491.0,491.0,491.0,491.0,476.0,476.0,476.0,526.0,526.0,526.0,526.0,554.0,554.0,734.0,734.0,734.0,568.0,568.0,568.0,568.0,608.0,608.0,608.0,608.0,473.0,473.0,473.0,571.0,571.0,571.0,571.0,364.0,364.0,484.0,484.0,484.0,507.0,507.0,507.0,507.0,580.0,580.0,580.0,580.0,620.0,620.0,620.0,608.0,608.0,608.0,608.0,516.0,516.0,150.0,370.0,186.0,508.22222222222223,594.3333333333334,563.2888888888889,423.0,364.0,484.0
0,573.0,608.0,620.0,516.0,515.0,532.0,573.0,573.0,573.0,573.0,491.0,491.0,491.0,476.0,476.0,476.0,526.0,526.0,526.0,526.0,554.0,554.0,554.0,554.0,516.0,516.0,568.0,568.0,568.0,568.0,608.0,608.0,608.0,473.0,473.0,473.0,571.0,571.0,571.0,571.0,364.0,364.0,364.0,364.0,515.0,515.0,507.0,507.0,507.0,507.0,580.0,580.0,580.0,620.0,620.0,620.0,608.0,608.0,608.0,608.0,516.0,516.0,516.0,516.0,532.0,532.0,150.0,370.0,186.0,509.97777777777776,576.2222222222222,562.9111111111112,476.0,364.0,507.0
0,554.0,608.0,620.0,484.0,548.0,531.0,491.0,491.0,491.0,491.0,476.0,476.0,476.0,526.0,526.0,526.0,526.0,554.0,554.0,554.0,554.0,516.0,516.0,516.0,484.0,484.0,608.0,608.0,608.0,608.0,473.0,473.0,473.0,571.0,571.0,571.0,571.0,364.0,364.0,364.0,364.0,515.0,515.0,515.0,548.0,548.0,580.0,580.0,580.0,580.0,620.0,620.0,620.0,608.0,608.0,608.0,608.0,516.0,516.0,516.0,516.0,532.0,532.0,532.0,531.0,531.0,150.0,370.0,186.0,512.5555555555555,563.2888888888889,565.6222222222223,476.0,364.0,516.0
0,554.0,608.0,622.0,513.0,248.0,622.0,491.0,476.0,476.0,476.0,526.0,526.0,526.0,526.0,554.0,554.0,554.0,554.0,516.0,516.0,516.0,484.0,484.0,484.0,513.0,513.0,608.0,473.0,473.0,473.0,571.0,571.0,571.0,571.0,364.0,364.0,364.0,364.0,515.0,515.0,515.0,548.0,548.0,548.0,248.0,248.0,580.0,620.0,620.0,620.0,608.0,608.0,608.0,608.0,516.0,516.0,516.0,516.0,532.0,532.0,532.0,531.0,531.0,531.0,622.0,622.0,150.0,486.0,186.0,512.7111111111111,545.0,570.5555555555555,476.0,248.0,516.0
0,554.0,571.0,622.0,486.0,388.0,552.0,476.0,526.0,526.0,526.0,526.0,554.0,554.0,554.0,554.0,516.0,516.0,516.0,484.0,484.0,484.0,513.0,513.0,513.0,486.0,486.0,473.0,571.0,571.0,571.0,571.0,364.0,364.0,364.0,364.0,515.0,515.0,515.0,548.0,548.0,548.0,248.0,248.0,248.0,388.0,388.0,620.0,608.0,608.0,608.0,608.0,516.0,516.0,516.0,516.0,532.0,532.0,532.0,531.0,531.0,531.0,622.0,622.0,622.0,552.0,552.0,150.0,486.0,186.0,509.0888888888889,526.5777777777778,567.4444444444445,476.0,248.0,516.0
0,583.0,571.0,622.0,583.0,288.0,541.0,526.0,526.0,554.0,554.0,554.0,554.0,516.0,516.0,516.0,484.0,484.0,484.0,513.0,513.0,513.0,486.0,486.0,486.0,583.0,583.0,571.0,571.0,364.0,364.0,364.0,364.0,515.0,515.0,515.0,548.0,548.0,548.0,248.0,248.0,248.0,388.0,388.0,388.0,288.0,288.0,608.0,608.0,516.0,516.0,516.0,516.0,532.0,532.0,532.0,531.0,531.0,531.0,622.0,622.0,622.0,552.0,552.0,552.0,541.0,541.0,160.0,486.0,166.0,509.8222222222222,510.1111111111111,559.5333333333333,484.0,248.0,516.0
0,583.0,548.0,622.0,519.0,459.0,479.0,554.0,554.0,554.0,516.0,516.0,516.0,484.0,484.0,484.0,513.0,513.0,513.0,486.0,486.0,486.0,583.0,583.0,583.0,519.0,519.0,364.0,364.0,364.0,515.0,515.0,515.0,548.0,548.0,548.0,248.0,248.0,248.0,388.0,388.0,388.0,288.0,288.0,288.0,459.0,459.0,516.0,516.0,516.0,532.0,532.0,532.0,531.0,531.0,531.0,622.0,622.0,622.0,552.0,552.0,552.0,541.0,541.0,541.0,479.0,479.0,160.0,486.0,143.0,512.7333333333333,504.75555555555553,551.5555555555555,484.0,248.0,479.0
0,583.0,548.0,622.0,583.0,386.0,502.0,516.0,516.0,516.0,484.0,484.0,484.0,513.0,513.0,513.0,486.0,486.0,486.0,583.0,583.0,583.0,519.0,519.0,519.0,583.0,583.0,515.0,515.0,515.0,548.0,548.0,548.0,248.0,248.0,248.0,388.0,388.0,388.0,288.0,288.0,288.0,459.0,459.0,459.0,386.0,386.0,532.0,532.0,532.0,531.0,531.0,531.0,622.0,622.0,622.0,552.0,552.0,552.0,541.0,541.0,541.0,479.0,479.0,479.0,502.0,502.0,160.0,486.0,143.0,516.2222222222222,492.73333333333335,547.1777777777778,484.0,248.0,479.0
0,583.0,548.0,622.0,524.0,463.0,449.0,484.0,484.0,484.0,513.0,513.0,513.0,486.0,486.0,486.0,583.0,583.0,583.0,519.0,519.0,519.0,583.0,583.0,583.0,524.0,524.0,548.0,548.0,548.0,248.0,248.0,248.0,388.0,388.0,388.0,288.0,288.0,288.0,459.0,459.0,459.0,386.0,386.0,386.0,463.0,463.0,531.0,531.0,531.0,622.0,622.0,622.0,552.0,552.0,552.0,541.0,541.0,541.0,479.0,479.0,479.0,502.0,502.0,502.0,449.0,449.0,160.0,486.0,173.0,519.4,477.4888888888889,540.6888888888889,484.0,248.0,449.0
0,583.0,678.0,622.0,462.0,678.0,494.0,513.0,513.0,513.0,486.0,486.0,486.0,583.0,583.0,583.0,519.0,519.0,519.0,583.0,583.0,583.0,524.0,524.0,524.0,524.0,462.0,248.0,248.0,248.0,388.0,388.0,388.0,288.0,288.0,288.0,459.0,459.0,459.0,386.0,386.0,386.0,463.0,463.0,463.0,463.0,678.0,622.0,622.0,622.0,552.0,552.0,552.0,541.0,541.0,541.0,479.0,479.0,479.0,502.0,502.0,502.0,449.0,449.0,449.0,449.0,494.0,121.0,430.0,173.0,524.7555555555556,464.2,539.3555555555556,462.0,248.0,449.0
0,583.0,678.0,626.0,479.0,478.0,626.0,486.0,486.0,583.0,583.0,583.0,519.0,519.0,519.0,583.0,583.0,583.0,524.0,524.0,524.0,524.0,462.0,462.0,462.0,479.0,479.0,388.0,388.0,288.0,288.0,288.0,459.0,459.0,459.0,386.0,386.0,386.0,463.0,463.0,463.0,463.0,678.0,678.0,678.0,478.0,478.0,552.0,552.0,541.0,541.0,541.0,479.0,479.0,479.0,502.0,502.0,502.0,449.0,449.0,449.0,449.0,494.0,494.0,494.0,626.0,626.0,121.0,430.0,177.0,515.6444444444444,465.0888888888889,544.0666666666667,462.0,288.0,449.0
0,583.0,678.0,627.0,518.0,492.0,627.0,583.0,583.0,519.0,519.0,519.0,583.0,583.0,583.0,524.0,524.0,524.0,524.0,462.0,462.0,462.0,479.0,479.0,479.0,518.0,518.0,288.0,288.0,459.0,459.0,459.0,386.0,386.0,386.0,463.0,463.0,463.0,463.0,678.0,678.0,678.0,478.0,478.0,478.0,492.0,492.0,541.0,541.0,479.0,479.0,479.0,502.0,502.0,502.0,449.0,449.0,449.0,449.0,494.0,494.0,494.0,626.0,626.0,626.0,627.0,627.0,121.0,430.0,178.0,516.5777777777778,457.0444444444444,547.1777777777778,462.0,288.0,449.0
0,583.0,678.0,627.0,449.0,575.0,597.0,519.0,519.0,583.0,583.0,583.0,524.0,524.0,524.0,524.0,462.0,462.0,462.0,479.0,479.0,479.0,518.0,518.0,518.0,449.0,449.0,459.0,459.0,386.0,386.0,386.0,463.0,463.0,463.0,463.0,678.0,678.0,678.0,478.0,478.0,478.0,492.0,492.0,492.0,575.0,575.0,479.0,479.0,502.0,502.0,502.0,449.0,449.0,449.0,449.0,494.0,494.0,494.0,626.0,626.0,626.0,627.0,627.0,627.0,597.0,597.0,134.0,430.0,178.0,515.9777777777778,459.0,547.2,449.0,386.0,449.0
0,526.0,678.0,627.0,526.0,639.0,550.0,524.0,524.0,524.0,524.0,462.0,462.0,462.0,479.0,479.0,479.0,518.0,518.0,518.0,449.0,449.0,449.0,449.0,449.0,526.0,526.0,463.0,463.0,463.0,463.0,678.0,678.0,678.0,478.0,478.0,478.0,492.0,492.0,492.0,575.0,575.0,575.0,575.0,575.0,639.0,639.0,449.0,449.0,449.0,449.0,494.0,494.0,494.0,626.0,626.0,626.0,627.0,627.0,627.0,597.0,597.0,597.0,597.0,597.0,550.0,550.0,134.0,430.0,178.0,511.9555555555556,464.46666666666664,543.6222222222223,449.0,463.0,449.0
0,526.0,678.0,627.0,480.0,647.0,604.0,462.0,462.0,462.0,479.0,479.0,479.0,518.0,518.0,518.0,449.0,449.0,449.0,449.0,449.0,526.0,526.0,526.0,526.0,480.0,480.0,678.0,678.0,678.0,478.0,478.0,478.0,492.0,492.0,492.0,575.0,575.0,575.0,575.0,575.0,639.0,639.0,639.0,639.0,647.0,647.0,494.0,494.0,494.0,626.0,626.0,626.0,627.0,627.0,627.0,597.0,597.0,597.0,597.0,597.0,550.0,550.0,550.0,550.0,604.0,604.0,134.0,430.0,178.0,507.4222222222222,489.26666666666665,549.0444444444445,449.0,478.0,494.0
0,543.0,647.0,627.0,543.0,583.0,550.0,479.0,479.0,479.0,518.0,518.0,518.0,449.0,449.0,449.0,449.0,449.0,526.0,526.0,526.0,526.0,480.0,480.0,480.0,480.0,543.0,478.0,478.0,478.0,492.0,492.0,492.0,575.0,575.0,575.0,575.0,575.0,639.0,639.0,639.0,639.0,647.0,647.0,647.0,647.0,583.0,626.0,626.0,626.0,627.0,627.0,627.0,597.0,597.0,597.0,597.0,597.0,550.0,550.0,550.0,550.0,604.0,604.0,604.0,604.0,550.0,134.0,430.0,178.0,506.4222222222222,496.64444444444445,552.6444444444444,449.0,478.0,550.0
0,543.0,647.0,615.0,539.0,635.0,615.0,449.0,449.0,449.0,449.0,449.0,526.0,526.0,526.0,526.0,480.0,480.0,480.0,480.0,543.0,543.0,543.0,543.0,543.0,539.0,539.0,575.0,575.0,575.0,575.0,575.0,639.0,639.0,639.0,639.0,647.0,647.0,647.0,647.0,583.0,583.0,583.0,583.0,583.0,635.0,635.0,597.0,597.0,597.0,597.0,597.0,550.0,550.0,550.0,550.0,604.0,604.0,604.0,604.0,550.0,550.0,550.0,550.0,550.0,615.0,615.0,134.0,390.0,178.0,512.1777777777778,523.6222222222223,552.0,449.0,575.0,550.0
0,543.0,647.0,640.0,486.0,523.0,640.0,449.0,526.0,526.0,526.0,526.0,480.0,480.0,480.0,480.0,543.0,543.0,543.0,543.0,543.0,539.0,539.0,539.0,539.0,486.0,486.0,575.0,639.0,639.0,639.0,639.0,647.0,647.0,647.0,647.0,583.0,583.0,583.0,583.0,583.0,635.0,635.0,635.0,635.0,523.0,523.0,597.0,550.0,550.0,550.0,550.0,604.0,604.0,604.0,604.0,550.0,550.0,550.0,550.0,550.0,615.0,615.0,615.0,615.0,640.0,640.0,134.0,390.0,191.0,512.3777777777777,542.8222222222222,558.9555555555555,449.0,523.0,550.0
0,568.0,647.0,640.0,568.0,467.0,564.0,526.0,526.0,480.0,480.0,480.0,480.0,543.0,543.0,543.0,543.0,543.0,539.0,539.0,539.0,539.0,486.0,486.0,486.0,486.0,568.0,639.0,639.0,647.0,647.0,647.0,647.0,583.0,583.0,583.0,583.0,583.0,635.0,635.0,635.0,635.0,523.0,523.0,523.0,523.0,467.0,550.0,550.0,604.0,604.0,604.0,604.0,550.0,550.0,550.0,550.0,550.0,615.0,615.0,615.0,615.0,640.0,640.0,640.0,640.0,564.0,134.0,292.0,191.0,509.15555555555557,553.4444444444445,565.2444444444444,480.0,467.0,550.0
0,568.0,647.0,640.0,540.0,516.0,552.0,480.0,543.0,543.0,543.0,543.0,543.0,539.0,539.0,539.0,539.0,486.0,486.0,486.0,486.0,568.0,568.0,568.0,568.0,568.0,540.0,647.0,583.0,583.0,583.0,583.0,583.0,635.0,635.0,635.0,635.0,523.0,523.0,523.0,523.0,467.0,467.0,467.0,467.0,467.0,516.0,604.0,550.0,550.0,550.0,550.0,550.0,615.0,615.0,615.0,615.0,640.0,640.0,640.0,640.0,564.0,564.0,564.0,564.0,564.0,552.0,119.0,215.0,191.0,509.7111111111111,560.2888888888889,572.8888888888889,480.0,467.0,550.0
0,568.0,635.0,640.0,540.0,516.0,552.0,543.0,543.0,543.0,543.0,539.0,539.0,539.0,539.0,486.0,486.0,486.0,486.0,568.0,568.0,568.0,568.0,568.0,540.0,540.0,540.0,583.0,583.0,583.0,583.0,635.0,635.0,635.0,635.0,523.0,523.0,523.0,523.0,467.0,467.0,467.0,467.0,467.0,516.0,516.0,516.0,550.0,550.0,550.0,550.0,615.0,615.0,615.0,615.0,640.0,640.0,640.0,640.0,564.0,564.0,564.0,564.0,564.0,552.0,552.0,552.0,119.0,215.0,191.0,510.4222222222222,562.6444444444444,577.4666666666667,486.0,467.0,550.0
0,568.0,635.0,656.0,542.0,530.0,656.0,539.0,539.0,539.0,539.0,486.0,486.0,486.0,486.0,568.0,568.0,568.0,568.0,568.0,540.0,540.0,540.0,487.0,487.0,542.0,542.0,635.0,635.0,635.0,635.0,523.0,523.0,523.0,523.0,467.0,467.0,467.0,467.0,467.0,516.0,516.0,516.0,595.0,595.0,530.0,530.0,615.0,615.0,615.0,615.0,640.0,640.0,640.0,640.0,564.0,564.0,564.0,564.0,564.0,552.0,552.0,552.0,627.0,627.0,656.0,656.0,119.0,211.0,162.0,511.1111111111111,563.3777777777777,591.9333333333333,486.0,467.0,552.0
0,568.0,595.0,656.0,469.0,498.0,644.0,486.0,486.0,486.0,568.0,568.0,568.0,568.0,568.0,540.0,540.0,540.0,487.0,487.0,487.0,542.0,542.0,542.0,542.0,469.0,469.0,523.0,523.0,523.0,467.0,467.0,467.0,467.0,467.0,516.0,516.0,516.0,595.0,595.0,595.0,530.0,530.0,530.0,530.0,498.0,498.0,640.0,640.0,640.0,564.0,564.0,564.0,564.0,564.0,552.0,552.0,552.0,627.0,627.0,627.0,656.0,656.0,656.0,656.0,644.0,644.0,119.0,180.0,106.0,514.3777777777777,562.9777777777778,597.6444444444444,469.0,467.0,552.0
0,568.0,595.0,656.0,537.0,293.0,616.0,568.0,568.0,568.0,568.0,540.0,540.0,540.0,487.0,487.0,487.0,542.0,542.0,542.0,542.0,469.0,469.0,469.0,469.0,537.0,537.0,467.0,467.0,467.0,467.0,516.0,516.0,516.0,595.0,595.0,595.0,530.0,530.0,530.0,530.0,498.0,498.0,498.0,498.0,293.0,293.0,564.0,564.0,564.0,564.0,552.0,552.0,552.0,627.0,627.0,627.0,656.0,656.0,656.0,656.0,644.0,644.0,644.0,644.0,616.0,616.0,119.0,354.0,106.0,516.1111111111111,550.7111111111111,599.2444444444444,469.0,293.0,552.0
0,554.0,595.0,656.0,554.0,401.0,542.0,540.0,540.0,540.0,487.0,487.0,487.0,542.0,542.0,542.0,542.0,469.0,469.0,469.0,469.0,537.0,537.0,537.0,537.0,554.0,554.0,516.0,516.0,516.0,595.0,595.0,595.0,530.0,530.0,530.0,530.0,498.0,498.0,498.0,498.0,293.0,293.0,293.0,293.0,401.0,401.0,552.0,552.0,552.0,627.0,627.0,627.0,656.0,656.0,656.0,656.0,644.0,644.0,644.0,644.0,616.0,616.0,616.0,616.0,542.0,542.0,99.0,354.0,114.0,522.9777777777778,529.0222222222222,598.6888888888889,469.0,293.0,542.0
0,554.0,595.0,656.0,482.0,388.0,564.0,487.0,487.0,487.0,542.0,542.0,542.0,542.0,469.0,469.0,469.0,469.0,537.0,537.0,537.0,537.0,554.0,554.0,554.0,482.0,482.0,595.0,595.0,595.0,530.0,530.0,530.0,530.0,498.0,498.0,498.0,498.0,293.0,293.0,293.0,293.0,401.0,401.0,401.0,388.0,388.0,627.0,627.0,627.0,656.0,656.0,656.0,656.0,644.0,644.0,644.0,644.0,616.0,616.0,616.0,616.0,542.0,542.0,542.0,564.0,564.0,99.0,354.0,114.0,521.6444444444444,512.5777777777778,599.1333333333333,469.0,293.0,542.0
0,554.0,530.0,656.0,549.0,361.0,603.0,542.0,542.0,542.0,469.0,469.0,469.0,469.0,537.0,537.0,537.0,537.0,554.0,554.0,554.0,482.0,482.0,482.0,482.0,549.0,549.0,530.0,530.0,530.0,498.0,498.0,498.0,498.0,293.0,293.0,293.0,293.0,401.0,401.0,401.0,388.0,388.0,388.0,388.0,361.0,361.0,656.0,656.0,656.0,644.0,644.0,644.0,644.0,616.0,616.0,616.0,616.0,542.0,542.0,542.0,564.0,564.0,564.0,564.0,603.0,603.0,99.0,342.0,114.0,524.8,488.35555555555555,597.3111111111111,469.0,293.0,542.0
0,554.0,498.0,644.0,527.0,169.0,604.0,469.0,469.0,469.0,469.0,537.0,537.0,537.0,537.0,554.0,554.0,554.0,482.0,482.0,482.0,482.0,549.0,549.0,549.0,549.0,527.0,498.0,498.0,498.0,498.0,293.0,293.0,293.0,293.0,401.0,401.0,401.0,388.0,388.0,388.0,388.0,361.0,361.0,361.0,361.0,169.0,644.0,644.0,644.0,644.0,616.0,616.0,616.0,616.0,542.0,542.0,542.0,564.0,564.0,564.0,564.0,603.0,603.0,603.0,603.0,604.0,99.0,466.0,114.0,524.7111111111111,469.2888888888889,600.8666666666667,469.0,169.0,542.0
0,554.0,498.0,644.0,501.0,379.0,533.0,469.0,537.0,537.0,537.0,537.0,554.0,554.0,554.0,482.0,482.0,482.0,482.0,549.0,549.0,549.0,549.0,527.0,527.0,501.0,501.0,498.0,293.0,293.0,293.0,293.0,401.0,401.0,401.0,388.0,388.0,388.0,388.0,361.0,361.0,361.0,361.0,169.0,169.0,379.0,379.0,644.0,616.0,616.0,616.0,616.0,542.0,542.0,542.0,564.0,564.0,564.0,564.0,603.0,603.0,603.0,603.0,604.0,604.0,533.0,533.0,99.0,466.0,123.0,522.5777777777778,449.8666666666667,599.8666666666667,469.0,169.0,533.0
0,621.0,413.0,616.0,621.0,413.0,528.0,537.0,554.0,554.0,554.0,482.0,482.0,482.0,482.0,549.0,549.0,549.0,549.0,527.0,527.0,501.0,501.0,501.0,501.0,621.0,621.0,293.0,401.0,401.0,401.0,388.0,388.0,388.0,388.0,361.0,361.0,361.0,361.0,169.0,169.0,379.0,379.0,379.0,379.0,413.0,413.0,616.0,542.0,542.0,542.0,564.0,564.0,564.0,564.0,603.0,603.0,603.0,603.0,604.0,604.0,533.0,533.0,533.0,533.0,528.0,528.0,152.0,426.0,128.0,525.7111111111111,431.1111111111111,591.8,482.0,169.0,528.0
0,627.0,460.0,604.0,627.0,460.0,552.0,554.0,482.0,482.0,482.0,482.0,549.0,549.0,549.0,549.0,527.0,527.0,501.0,501.0,501.0,501.0,621.0,621.0,621.0,621.0,627.0,401.0,388.0,388.0,388.0,388.0,361.0,361.0,361.0,361.0,169.0,169.0,379.0,379.0,379.0,379.0,413.0,413.0,413.0,413.0,460.0,542.0,564.0,564.0,564.0,564.0,603.0,603.0,603.0,603.0,604.0,604.0,533.0,533.0,533.0,533.0,528.0,528.0,528.0,528.0,552.0,158.0,426.0,128.0,534.8444444444444,424.8222222222222,584.8666666666667,482.0,169.0,528.0
0,627.0,460.0,604.0,458.0,347.0,490.0,482.0,482.0,549.0,549.0,549.0,549.0,527.0,527.0,501.0,501.0,501.0,501.0,621.0,621.0,621.0,621.0,627.0,627.0,627.0,458.0,388.0,388.0,361.0,361.0,361.0,361.0,169.0,169.0,379.0,379.0,379.0,379.0,413.0,413.0,413.0,413.0,460.0,460.0,460.0,347.0,564.0,564.0,603.0,603.0,603.0,603.0,604.0,604.0,533.0,533.0,533.0,533.0,528.0,528.0,528.0,528.0,552.0,552.0,552.0,490.0,169.0,426.0,166.0,535.0222222222222,421.84444444444443,582.6888888888889,458.0,169.0,490.0
0,627.0,509.0,604.0,478.0,509.0,514.0,549.0,549.0,549.0,527.0,527.0,501.0,501.0,501.0,501.0,621.0,621.0,621.0,621.0,627.0,627.0,627.0,458.0,458.0,458.0,478.0,361.0,361.0,361.0,169.0,169.0,379.0,379.0,379.0,379.0,413.0,413.0,413.0,413.0,460.0,460.0,460.0,347.0,347.0,347.0,509.0,603.0,603.0,603.0,604.0,604.0,533.0,533.0,533.0,533.0,528.0,528.0,528.0,528.0,552.0,552.0,552.0,490.0,490.0,490.0,514.0,169.0,426.0,166.0,528.7555555555556,416.35555555555555,578.5555555555555,458.0,169.0,490.0
0,627.0,575.0,604.0,466.0,575.0,485.0,527.0,501.0,501.0,501.0,501.0,621.0,621.0,621.0,621.0,627.0,627.0,627.0,458.0,458.0,458.0,478.0,478.0,478.0,466.0,466.0,169.0,379.0,379.0,379.0,379.0,413.0,413.0,413.0,413.0,460.0,460.0,460.0,347.0,347.0,347.0,509.0,509.0,509.0,575.0,575.0,604.0,533.0,533.0,533.0,533.0,528.0,528.0,528.0,528.0,552.0,552.0,552.0,490.0,490.0,490.0,514.0,514.0,514.0,485.0,485.0,169.0,426.0,171.0,525.0666666666667,415.15555555555557,570.5555555555555,458.0,169.0,485.0
0,627.0,575.0,552.0,586.0,544.0,480.0,501.0,621.0,621.0,621.0,621.0,627.0,627.0,627.0,458.0,458.0,458.0,478.0,478.0,478.0,466.0,466.0,466.0,466.0,586.0,586.0,379.0,413.0,413.0,413.0,413.0,460.0,460.0,460.0,347.0,347.0,347.0,509.0,509.0,509.0,575.0,575.0,575.0,575.0,544.0,544.0,533.0,528.0,528.0,528.0,528.0,552.0,552.0,552.0,490.0,490.0,490.0,514.0,514.0,514.0,485.0,485.0,485.0,485.0,480.0,480.0,169.0,406.0,176.0,524.8666666666667,416.3333333333333,555.7777777777778,458.0,347.0,480.0
0,627.0,678.0,552.0,462.0,678.0,369.0,621.0,627.0,627.0,627.0,458.0,458.0,458.0,478.0,478.0,478.0,466.0,466.0,466.0,466.0,586.0,586.0,586.0,586.0,462.0,462.0,413.0,460.0,460.0,460.0,347.0,347.0,347.0,509.0,509.0,509.0,575.0,575.0,575.0,575.0,544.0,544.0,544.0,544.0,678.0,678.0,528.0,552.0,552.0,552.0,490.0,490.0,490.0,514.0,514.0,514.0,485.0,485.0,485.0,485.0,480.0,480.0,480.0,480.0,369.0,369.0,169.0,509.0,275.0,528.1333333333333,425.6666666666667,536.0,458.0,347.0,369.0
0,586.0,678.0,608.0,499.0,635.0,608.0,458.0,458.0,458.0,478.0,478.0,478.0,466.0,466.0,466.0,466.0,586.0,586.0,586.0,586.0,462.0,462.0,462.0,462.0,499.0,499.0,347.0,347.0,347.0,509.0,509.0,509.0,575.0,575.0,575.0,575.0,544.0,544.0,544.0,544.0,678.0,678.0,678.0,678.0,635.0,635.0,490.0,490.0,490.0,514.0,514.0,514.0,485.0,485.0,485.0,485.0,480.0,480.0,480.0,480.0,369.0,369.0,369.0,369.0,608.0,608.0,169.0,509.0,247.0,524.6222222222223,453.4222222222222,524.0444444444445,458.0,347.0,369.0
0,586.0,678.0,608.0,519.0,634.0,555.0,478.0,478.0,466.0,466.0,466.0,466.0,586.0,586.0,586.0,586.0,462.0,462.0,462.0,462.0,499.0,499.0,499.0,499.0,519.0,519.0,509.0,509.0,575.0,575.0,575.0,575.0,544.0,544.0,544.0,544.0,678.0,678.0,678.0,678.0,635.0,635.0,635.0,635.0,634.0,634.0,514.0,514.0,485.0,485.0,485.0,485.0,480.0,480.0,480.0,480.0,369.0,369.0,369.0,369.0,608.0,608.0,608.0,608.0,555.0,555.0,169.0,509.0,239.0,521.0,476.5777777777778,525.9111111111112,462.0,509.0,369.0
0,586.0,678.0,608.0,512.0,658.0,567.0,466.0,466.0,586.0,586.0,586.0,586.0,462.0,462.0,462.0,462.0,499.0,499.0,499.0,499.0,519.0,519.0,519.0,519.0,512.0,512.0,575.0,575.0,544.0,544.0,544.0,544.0,678.0,678.0,678.0,678.0,635.0,635.0,635.0,635.0,634.0,634.0,634.0,634.0,658.0,658.0,485.0,485.0,480.0,480.0,480.0,480.0,369.0,369.0,369.0,369.0,608.0,608.0,608.0,608.0,555.0,555.0,555.0,555.0,567.0,567.0,169.0,509.0,239.0,523.9777777777778,499.5111111111111,525.6444444444444,462.0,544.0,369.0
0,586.0,678.0,627.0,412.0,546.0,627.0,586.0,462.0,462.0,462.0,462.0,499.0,499.0,499.0,499.0,519.0,519.0,519.0,519.0,512.0,512.0,512.0,512.0,512.0,412.0,412.0,544.0,678.0,678.0,678.0,678.0,635.0,635.0,635.0,635.0,634.0,634.0,634.0,634.0,658.0,658.0,658.0,658.0,658.0,546.0,546.0,480.0,369.0,369.0,369.0,369.0,608.0,608.0,608.0,608.0,555.0,555.0,555.0,555.0,567.0,567.0,567.0,567.0,567.0,627.0,627.0,215.0,509.0,258.0,515.9111111111112,531.8,524.2888888888889,412.0,544.0,369.0
0,587.0,678.0,641.0,587.0,540.0,641.0,462.0,499.0,499.0,499.0,499.0,519.0,519.0,519.0,519.0,512.0,512.0,512.0,512.0,512.0,412.0,412.0,412.0,412.0,587.0,587.0,678.0,635.0,635.0,635.0,635.0,634.0,634.0,634.0,634.0,658.0,658.0,658.0,658.0,658.0,546.0,546.0,546.0,546.0,540.0,540.0,369.0,608.0,608.0,608.0,608.0,555.0,555.0,555.0,555.0,567.0,567.0,567.0,567.0,567.0,627.0,627.0,627.0,627.0,641.0,641.0,215.0,331.0,272.0,515.2,551.0444444444445,531.6888888888889,412.0,540.0,369.0
0,587.0,658.0,641.0,474.0,551.0,571.0,499.0,519.0,519.0,519.0,519.0,512.0,512.0,512.0,512.0,512.0,412.0,412.0,412.0,412.0,587.0,587.0,587.0,587.0,474.0,474.0,635.0,634.0,634.0,634.0,634.0,658.0,658.0,658.0,658.0,658.0,546.0,546.0,546.0,546.0,540.0,540.0,540.0,540.0,551.0,551.0,608.0,555.0,555.0,555.0,555.0,567.0,567.0,567.0,567.0,567.0,627.0,627.0,627.0,627.0,641.0,641.0,641.0,641.0,571.0,571.0,215.0,331.0,272.0,509.8222222222222,563.5777777777778,538.5111111111111,412.0,540.0,555.0
0,587.0,658.0,641.0,459.0,587.0,553.0,519.0,512.0,512.0,512.0,512.0,512.0,412.0,412.0,412.0,412.0,587.0,587.0,587.0,587.0,474.0,474.0,474.0,474.0,459.0,459.0,634.0,658.0,658.0,658.0,658.0,658.0,546.0,546.0,546.0,546.0,540.0,540.0,540.0,540.0,551.0,551.0,551.0,551.0,587.0,587.0,555.0,567.0,567.0,567.0,567.0,567.0,627.0,627.0,627.0,627.0,641.0,641.0,641.0,641.0,571.0,571.0,571.0,571.0,553.0,553.0,175.0,331.0,272.0,495.68888888888887,574.3111111111111,539.9333333333333,412.0,540.0,553.0
0,587.0,658.0,641.0,514.0,540.0,544.0,512.0,512.0,412.0,412.0,412.0,412.0,587.0,587.0,587.0,587.0,474.0,474.0,474.0,474.0,459.0,459.0,459.0,459.0,459.0,514.0,658.0,658.0,546.0,546.0,546.0,546.0,540.0,540.0,540.0,540.0,551.0,551.0,551.0,551.0,587.0,587.0,587.0,587.0,587.0,540.0,567.0,567.0,627.0,627.0,627.0,627.0,641.0,641.0,641.0,641.0,571.0,571.0,571.0,571.0,553.0,553.0,553.0,553.0,553.0,544.0,175.0,169.0,272.0,496.55555555555554,591.0,544.8,412.0,540.0,544.0
0,587.0,587.0,641.0,463.0,509.0,638.0,412.0,587.0,587.0,587.0,587.0,474.0,474.0,474.0,474.0,459.0,459.0,459.0,459.0,459.0,514.0,514.0,514.0,514.0,463.0,463.0,546.0,540.0,540.0,540.0,540.0,551.0,551.0,551.0,551.0,587.0,587.0,587.0,587.0,587.0,540.0,540.0,540.0,540.0,509.0,509.0,627.0,641.0,641.0,641.0,641.0,571.0,571.0,571.0,571.0,553.0,553.0,553.0,553.0,553.0,544.0,544.0,544.0,544.0,638.0,638.0,175.0,169.0,272.0,499.0888888888889,588.6666666666666,554.2444444444444,412.0,509.0,544.0
0,587.0,587.0,641.0,504.0,425.0,629.0,587.0,474.0,474.0,474.0,474.0,459.0,459.0,459.0,459.0,459.0,514.0,514.0,514.0,514.0,463.0,463.0,463.0,463.0,504.0,504.0,540.0,551.0,551.0,551.0,551.0,587.0,587.0,587.0,587.0,587.0,540.0,540.0,540.0,540.0,509.0,509.0,509.0,509.0,425.0,425.0,641.0,571.0,571.0,571.0,571.0,553.0,553.0,553.0,553.0,553.0,544.0,544.0,544.0,544.0,638.0,638.0,638.0,638.0,629.0,629.0,175.0,253.0,272.0,492.64444444444445,581.1333333333333,567.7777777777778,459.0,425.0,544.0
0,514.0,587.0,638.0,476.0,480.0,575.0,474.0,459.0,459.0,459.0,459.0,459.0,514.0,514.0,514.0,514.0,463.0,463.0,463.0,463.0,504.0,504.0,504.0,504.0,476.0,476.0,551.0,587.0,587.0,587.0,587.0,587.0,540.0,540.0,540.0,540.0,509.0,509.0,509.0,509.0,425.0,425.0,425.0,425.0,480.0,480.0,571.0,553.0,553.0,553.0,553.0,553.0,544.0,544.0,544.0,544.0,638.0,638.0,638.0,638.0,629.0,629.0,629.0,629.0,575.0,575.0,175.0,253.0,272.0,492.3777777777778,564.0666666666667,586.0222222222222,459.0,425.0,544.0
0,608.0,587.0,638.0,608.0,354.0,501.0,459.0,459.0,514.0,514.0,514.0,514.0,463.0,463.0,463.0,463.0,504.0,504.0,504.0,504.0,476.0,476.0,476.0,476.0,608.0,608.0,587.0,587.0,540.0,540.0,540.0,540.0,509.0,509.0,509.0,509.0,425.0,425.0,425.0,425.0,480.0,480.0,480.0,480.0,354.0,354.0,553.0,553.0,544.0,544.0,544.0,544.0,638.0,638.0,638.0,638.0,629.0,629.0,629.0,629.0,575.0,575.0,575.0,575.0,501.0,501.0,196.0,304.0,140.0,497.02222222222224,543.7333333333333,585.1111111111111,459.0,354.0,501.0
0,608.0,540.0,656.0,472.0,435.0,656.0,514.0,514.0,463.0,463.0,463.0,463.0,504.0,504.0,504.0,504.0,476.0,476.0,476.0,476.0,608.0,608.0,608.0,608.0,472.0,472.0,540.0,540.0,509.0,509.0,509.0,509.0,425.0,425.0,425.0,425.0,480.0,480.0,480.0,480.0,354.0,354.0,354.0,354.0,435.0,435.0,544.0,544.0,638.0,638.0,638.0,638.0,629.0,629.0,629.0,629.0,575.0,575.0,575.0,575.0,501.0,501.0,501.0,501.0,656.0,656.0,196.0,304.0,155.0,499.3333333333333,522.4222222222222,586.0222222222222,463.0,354.0,501.0
0,608.0,509.0,656.0,498.0,446.0,616.0,463.0,463.0,504.0,504.0,504.0,504.0,476.0,476.0,476.0,476.0,608.0,608.0,608.0,608.0,472.0,472.0,472.0,472.0,498.0,498.0,509.0,509.0,425.0,425.0,425.0,425.0,480.0,480.0,480.0,480.0,354.0,354.0,354.0,354.0,435.0,435.0,435.0,435.0,446.0,446.0,638.0,638.0,629.0,629.0,629.0,629.0,575.0,575.0,575.0,575.0,501.0,501.0,501.0,501.0,656.0,656.0,656.0,656.0,616.0,616.0,196.0,304.0,155.0,496.77777777777777,503.6222222222222,592.4222222222222,463.0,354.0,501.0
0,608.0,480.0,656.0,457.0,421.0,574.0,504.0,504.0,476.0,476.0,476.0,476.0,608.0,608.0,608.0,608.0,472.0,472.0,472.0,472.0,498.0,498.0,498.0,498.0,457.0,457.0,425.0,425.0,480.0,480.0,480.0,480.0,354.0,354.0,354.0,354.0,435.0,435.0,435.0,435.0,446.0,446.0,446.0,446.0,421.0,421.0,629.0,629.0,575.0,575.0,575.0,575.0,501.0,501.0,501.0,501.0,656.0,656.0,656.0,656.0,616.0,616.0,616.0,616.0,574.0,574.0,196.0,233.0,155.0,498.15555555555557,488.64444444444445,592.2444444444444,457.0,354.0,501.0
0,608.0,480.0,656.0,527.0,360.0,402.0,476.0,476.0,476.0,608.0,608.0,608.0,608.0,472.0,472.0,472.0,472.0,498.0,498.0,498.0,498.0,457.0,457.0,457.0,457.0,527.0,480.0,480.0,480.0,354.0,354.0,354.0,354.0,435.0,435.0,435.0,435.0,446.0,446.0,446.0,446.0,421.0,421.0,421.0,421.0,360.0,575.0,575.0,575.0,501.0,501.0,501.0,501.0,656.0,656.0,656.0,656.0,616.0,616.0,616.0,616.0,574.0,574.0,574.0,574.0,402.0,151.0,233.0,254.0,498.8222222222222,479.0888888888889,584.5777777777778,457.0,354.0,402.0
0,608.0,460.0,656.0,522.0,460.0,462.0,608.0,608.0,608.0,472.0,472.0,472.0,472.0,498.0,498.0,498.0,498.0,457.0,457.0,457.0,457.0,527.0,527.0,527.0,527.0,522.0,354.0,354.0,354.0,435.0,435.0,435.0,435.0,446.0,446.0,446.0,446.0,421.0,421.0,421.0,421.0,360.0,360.0,360.0,360.0,460.0,501.0,501.0,501.0,656.0,656.0,656.0,656.0,616.0,616.0,616.0,616.0,574.0,574.0,574.0,574.0,402.0,402.0,402.0,402.0,462.0,151.0,233.0,254.0,495.8888888888889,465.06666666666666,566.2222222222222,457.0,354.0,402.0
0,535.0,460.0,656.0,535.0,404.0,514.0,472.0,498.0,498.0,498.0,498.0,457.0,457.0,457.0,457.0,527.0,527.0,527.0,527.0,522.0,522.0,522.0,522.0,522.0,535.0,535.0,435.0,446.0,446.0,446.0,446.0,421.0,421.0,421.0,421.0,360.0,360.0,360.0,360.0,460.0,460.0,460.0,460.0,460.0,404.0,404.0,656.0,616.0,616.0,616.0,616.0,574.0,574.0,574.0,574.0,402.0,402.0,402.0,402.0,462.0,462.0,462.0,462.0,462.0,514.0,514.0,151.0,233.0,254.0,503.8666666666667,448.0444444444444,555.2,457.0,360.0,402.0
0,535.0,622.0,616.0,478.0,622.0,454.0,498.0,457.0,457.0,457.0,457.0,527.0,527.0,527.0,527.0,522.0,522.0,522.0,522.0,522.0,535.0,535.0,535.0,535.0,478.0,478.0,446.0,421.0,421.0,421.0,421.0,360.0,360.0,360.0,360.0,460.0,460.0,460.0,460.0,460.0,404.0,404.0,404.0,404.0,622.0,622.0,616.0,574.0,574.0,574.0,574.0,402.0,402.0,402.0,402.0,462.0,462.0,462.0,462.0,462.0,514.0,514.0,514.0,514.0,454.0,454.0,151.0,268.0,254.0,505.64444444444445,443.55555555555554,549.4666666666667,457.0,360.0,402.0
0,535.0,622.0,574.0,507.0,543.0,441.0,457.0,457.0,527.0,527.0,527.0,527.0,522.0,522.0,522.0,522.0,522.0,535.0,535.0,535.0,535.0,478.0,478.0,478.0,507.0,507.0,421.0,421.0,360.0,360.0,360.0,360.0,460.0,460.0,460.0,460.0,460.0,404.0,404.0,404.0,404.0,622.0,622.0,622.0,543.0,543.0,574.0,574.0,402.0,402.0,402.0,402.0,462.0,462.0,462.0,462.0,462.0,514.0,514.0,514.0,514.0,454.0,454.0,454.0,441.0,441.0,151.0,268.0,254.0,505.6666666666667,446.2,540.8,457.0,360.0,402.0
0,535.0,622.0,586.0,467.0,465.0,586.0,527.0,527.0,522.0,522.0,522.0,522.0,522.0,535.0,535.0,535.0,535.0,478.0,478.0,478.0,507.0,507.0,507.0,507.0,467.0,467.0,360.0,360.0,460.0,460.0,460.0,460.0,460.0,404.0,404.0,404.0,404.0,622.0,622.0,622.0,543.0,543.0,543.0,543.0,465.0,465.0,402.0,402.0,462.0,462.0,462.0,462.0,462.0,514.0,514.0,514.0,514.0,454.0,454.0,454.0,441.0,441.0,441.0,441.0,586.0,586.0,151.0,268.0,254.0,506.8888888888889,447.6222222222222,529.9333333333333,467.0,360.0,402.0
0,535.0,622.0,586.0,526.0,363.0,550.0,522.0,522.0,522.0,522.0,535.0,535.0,535.0,535.0,478.0,478.0,478.0,507.0,507.0,507.0,507.0,467.0,467.0,467.0,526.0,526.0,460.0,460.0,460.0,460.0,404.0,404.0,404.0,404.0,622.0,622.0,622.0,543.0,543.0,543.0,543.0,465.0,465.0,465.0,363.0,363.0,462.0,462.0,462.0,462.0,514.0,514.0,514.0,514.0,454.0,454.0,454.0,441.0,441.0,441.0,441.0,586.0,586.0,586.0,550.0,550.0,151.0,268.0,254.0,507.0444444444444,445.75555555555553,525.4666666666667,467.0,363.0,441.0
0,535.0,622.0,586.0,516.0,575.0,484.0,522.0,535.0,535.0,535.0,535.0,478.0,478.0,478.0,507.0,507.0,507.0,507.0,467.0,467.0,467.0,526.0,526.0,526.0,516.0,516.0,460.0,404.0,404.0,404.0,404.0,622.0,622.0,622.0,543.0,543.0,543.0,543.0,465.0,465.0,465.0,363.0,363.0,363.0,575.0,575.0,462.0,514.0,514.0,514.0,514.0,454.0,454.0,454.0,441.0,441.0,441.0,441.0,586.0,586.0,586.0,550.0,550.0,550.0,484.0,484.0,151.0,268.0,254.0,509.93333333333334,447.3777777777778,520.8666666666667,467.0,363.0,441.0
0,535.0,638.0,586.0,495.0,638.0,533.0,535.0,478.0,478.0,478.0,507.0,507.0,507.0,507.0,467.0,467.0,467.0,526.0,526.0,526.0,516.0,516.0,516.0,516.0,495.0,495.0,404.0,622.0,622.0,622.0,543.0,543.0,543.0,543.0,465.0,465.0,465.0,363.0,363.0,363.0,575.0,575.0,575.0,575.0,638.0,638.0,514.0,454.0,454.0,454.0,441.0,441.0,441.0,441.0,586.0,586.0,586.0,550.0,550.0,550.0,484.0,484.0,484.0,484.0,533.0,533.0,151.0,284.0,254.0,503.75555555555553,467.02222222222224,519.8888888888889,467.0,363.0,441.0
0,563.0,638.0,612.0,563.0,528.0,612.0,478.0,507.0,507.0,507.0,507.0,467.0,467.0,467.0,526.0,526.0,526.0,516.0,516.0,516.0,516.0,495.0,495.0,495.0,563.0,563.0,622.0,543.0,543.0,543.0,543.0,465.0,465.0,465.0,363.0,363.0,363.0,575.0,575.0,575.0,575.0,638.0,638.0,638.0,528.0,528.0,454.0,441.0,441.0,441.0,441.0,586.0,586.0,586.0,550.0,550.0,550.0,484.0,484.0,484.0,484.0,533.0,533.0,533.0,612.0,612.0,106.0,278.0,254.0,505.2888888888889,477.46666666666664,518.6444444444444,467.0,363.0,441.0
0,563.0,715.0,612.0,458.0,715.0,597.0,507.0,507.0,467.0,467.0,467.0,526.0,526.0,526.0,516.0,516.0,516.0,516.0,495.0,495.0,495.0,563.0,563.0,563.0,563.0,458.0,543.0,543.0,465.0,465.0,465.0,363.0,363.0,363.0,575.0,575.0,575.0,575.0,638.0,638.0,638.0,528.0,528.0,528.0,528.0,715.0,441.0,441.0,586.0,586.0,586.0,550.0,550.0,550.0,484.0,484.0,484.0,484.0,533.0,533.0,533.0,612.0,612.0,612.0,612.0,597.0,106.0,355.0,214.0,508.44444444444446,487.5777777777778,516.2666666666667,458.0,363.0,441.0
0,563.0,715.0,688.0,520.0,596.0,688.0,467.0,526.0,526.0,526.0,516.0,516.0,516.0,516.0,495.0,495.0,495.0,563.0,563.0,563.0,563.0,458.0,458.0,458.0,520.0,520.0,465.0,363.0,363.0,363.0,575.0,575.0,575.0,575.0,638.0,638.0,638.0,528.0,528.0,528.0,528.0,715.0,715.0,715.0,596.0,596.0,586.0,550.0,550.0,550.0,484.0,484.0,484.0,484.0,533.0,533.0,533.0,612.0,612.0,612.0,612.0,597.0,597.0,597.0,688.0,688.0,106.0,355.0,286.0,508.55555555555554,506.75555555555553,519.5555555555555,458.0,363.0,484.0
