,emg_0,emg_1,emg_2,emg_ampl_0,emg_ampl_1,emg_ampl_2,emg_min_0,emg_min_1,emg_min_2,emg_prev_0_0,emg_prev_0_1,emg_prev_0_2,emg_prev_0_3,emg_prev_0_4,emg_prev_0_5,emg_prev_0_6,emg_prev_0_7,emg_prev_0_8,emg_prev_0_9,emg_prev_0_10,emg_prev_0_11,emg_prev_0_12,emg_prev_0_13,emg_prev_0_14,emg_prev_0_15,emg_prev_0_16,emg_prev_0_17,emg_prev_0_18,emg_prev_0_19,emg_prev_1_0,emg_prev_1_1,emg_prev_1_2,emg_prev_1_3,emg_prev_1_4,emg_prev_1_5,emg_prev_1_6,emg_prev_1_7,emg_prev_1_8,emg_prev_1_9,emg_prev_1_10,emg_prev_1_11,emg_prev_1_12,emg_prev_1_13,emg_prev_1_14,emg_prev_1_15,emg_prev_1_16,emg_prev_1_17,emg_prev_1_18,emg_prev_1_19,emg_prev_2_0,emg_prev_2_1,emg_prev_2_2,emg_prev_2_3,emg_prev_2_4,emg_prev_2_5,emg_prev_2_6,emg_prev_2_7,emg_prev_2_8,emg_prev_2_9,emg_prev_2_10,emg_prev_2_11,emg_prev_2_12,emg_prev_2_13,emg_prev_2_14,emg_prev_2_15,emg_prev_2_16,emg_prev_2_17,emg_prev_2_18,emg_prev_2_19,emg_med_0,emg_med_1,emg_med_2,emg_max_0,emg_max_1,emg_max_2
0,0.0,0.0,0.0,0.0,0.0,0.0,0.0,0.0,0.0,0.0,0.0,0.0,0.0,0.0,0.0,0.0,0.0,0.0,0.0,0.0,0.0,0.0,0.0,0.0,0.0,0.0,0.0,0.0,0.0,0.0,0.0,0.0,0.0,0.0,0.0,0.0,0.0,0.0,0.0,0.0,0.0,0.0,0.0,0.0,0.0,0.0,0.0,0.0,0.0,0.0,0.0,0.0,0.0,0.0,0.0,0.0,0.0,0.0,0.0,0.0,0.0,0.0,0.0,0.0,0.0,0.0,0.0,0.0,0.0,0.0,0.0,0.0,0.0,0.0,0.0
0,518.0,494.0,494.0,40.0,15.0,31.0,500.0,494.0,490.0,500.0,500.0,500.0,500.0,502.0,502.0,502.0,502.0,502.0,536.0,536.0,536.0,536.0,536.0,500.0,500.0,500.0,500.0,500.0,518.0,503.0,503.0,503.0,503.0,504.0,504.0,504.0,504.0,504.0,505.0,505.0,505.0,505.0,505.0,499.0,499.0,499.0,499.0,499.0,494.0,502.0,502.0,502.0,502.0,496.0,496.0,496.0,496.0,496.0,492.0,492.0,492.0,492.0,492.0,490.0,490.0,490.0,490.0,490.0,494.0,507.7111111111111,504.26666666666665,504.5111111111111,536.0,505.0,502.0
0,512.0,494.0,487.0,40.0,15.0,33.0,500.0,494.0,487.0,502.0,502.0,502.0,502.0,536.0,536.0,536.0,536.0,536.0,500.0,500.0,500.0,500.0,500.0,518.0,518.0,518.0,518.0,512.0,512.0,504.0,504.0,504.0,504.0,505.0,505.0,505.0,505.0,505.0,499.0,499.0,499.0,499.0,499.0,494.0,494.0,494.0,494.0,494.0,494.0,496.0,496.0,496.0,496.0,492.0,492.0,492.0,492.0,492.0,490.0,490.0,490.0,490.0,490.0,494.0,494.0,494.0,494.0,487.0,487.0,508.1777777777778,502.9111111111111,501.22222222222223,536.0,505.0,496.0
0,512.0,494.0,487.0,40.0,15.0,33.0,500.0,494.0,487.0,502.0,536.0,536.0,536.0,536.0,536.0,500.0,500.0,500.0,500.0,500.0,518.0,518.0,518.0,518.0,512.0,512.0,512.0,512.0,512.0,504.0,505.0,505.0,505.0,505.0,505.0,499.0,499.0,499.0,499.0,499.0,494.0,494.0,494.0,494.0,494.0,494.0,494.0,494.0,494.0,496.0,492.0,492.0,492.0,492.0,492.0,490.0,490.0,490.0,490.0,490.0,494.0,494.0,494.0,494.0,487.0,487.0,487.0,487.0,487.0,508.1111111111111,502.31111111111113,499.02222222222224,536.0,505.0,496.0
0,500.0,500.0,485.0,40.0,15.0,33.0,500.0,494.0,485.0,536.0,536.0,536.0,500.0,500.0,500.0,500.0,500.0,518.0,518.0,518.0,518.0,512.0,512.0,512.0,512.0,512.0,500.0,500.0,500.0,505.0,505.0,505.0,499.0,499.0,499.0,499.0,499.0,494.0,494.0,494.0,494.0,494.0,494.0,494.0,494.0,494.0,500.0,500.0,500.0,492.0,492.0,492.0,490.0,490.0,490.0,490.0,490.0,494.0,494.0,494.0,494.0,487.0,487.0,487.0,487.0,487.0,485.0,485.0,485.0,507.6,501.84444444444443,496.77777777777777,536.0,505.0,494.0
0,509.0,505.0,487.0,40.0,14.0,21.0,500.0,494.0,485.0,500.0,500.0,500.0,518.0,518.0,518.0,518.0,512.0,512.0,512.0,512.0,512.0,500.0,500.0,500.0,509.0,509.0,509.0,509.0,509.0,499.0,499.0,499.0,494.0,494.0,494.0,494.0,494.0,494.0,494.0,494.0,494.0,500.0,500.0,500.0,505.0,505.0,505.0,505.0,505.0,490.0,490.0,490.0,494.0,494.0,494.0,494.0,487.0,487.0,487.0,487.0,487.0,485.0,485.0,485.0,487.0,487.0,487.0,487.0,487.0,508.0444444444444,501.44444444444446,493.8666666666667,518.0,505.0,494.0
0,512.0,513.0,496.0,40.0,19.0,17.0,500.0,494.0,485.0,518.0,518.0,512.0,512.0,512.0,512.0,512.0,500.0,500.0,500.0,509.0,509.0,509.0,509.0,509.0,513.0,513.0,513.0,513.0,512.0,494.0,494.0,494.0,494.0,494.0,494.0,494.0,500.0,500.0,500.0,505.0,505.0,505.0,505.0,505.0,507.0,507.0,507.0,507.0,513.0,494.0,494.0,487.0,487.0,487.0,487.0,487.0,485.0,485.0,485.0,487.0,487.0,487.0,487.0,487.0,488.0,488.0,488.0,488.0,496.0,509.31111111111113,501.68888888888887,492.26666666666665,518.0,513.0,496.0
0,502.0,523.0,496.0,36.0,29.0,17.0,500.0,494.0,485.0,512.0,512.0,500.0,500.0,500.0,509.0,509.0,509.0,509.0,509.0,513.0,513.0,513.0,513.0,512.0,512.0,512.0,512.0,512.0,502.0,494.0,494.0,500.0,500.0,500.0,505.0,505.0,505.0,505.0,505.0,507.0,507.0,507.0,507.0,513.0,513.0,513.0,513.0,513.0,523.0,487.0,487.0,485.0,485.0,485.0,487.0,487.0,487.0,487.0,487.0,488.0,488.0,488.0,488.0,496.0,496.0,496.0,496.0,496.0,496.0,510.68888888888887,503.02222222222224,491.6666666666667,513.0,523.0,496.0
0,513.0,525.0,502.0,36.0,31.0,17.0,502.0,505.0,487.0,509.0,509.0,509.0,509.0,509.0,513.0,513.0,513.0,513.0,512.0,512.0,512.0,512.0,512.0,502.0,502.0,502.0,502.0,502.0,513.0,505.0,505.0,505.0,505.0,505.0,507.0,507.0,507.0,507.0,513.0,513.0,513.0,513.0,513.0,523.0,523.0,523.0,523.0,523.0,525.0,487.0,487.0,487.0,487.0,487.0,488.0,488.0,488.0,488.0,496.0,496.0,496.0,496.0,496.0,496.0,496.0,496.0,496.0,496.0,502.0,511.06666666666666,505.24444444444447,491.4,513.0,525.0,502.0
0,505.0,523.0,504.0,36.0,31.0,19.0,502.0,507.0,488.0,513.0,513.0,513.0,513.0,512.0,512.0,512.0,512.0,512.0,502.0,502.0,502.0,502.0,513.0,513.0,513.0,513.0,513.0,505.0,505.0,507.0,507.0,507.0,507.0,513.0,513.0,513.0,513.0,513.0,523.0,523.0,523.0,523.0,525.0,525.0,525.0,525.0,525.0,523.0,523.0,488.0,488.0,488.0,488.0,496.0,496.0,496.0,496.0,496.0,496.0,496.0,496.0,496.0,502.0,502.0,502.0,502.0,502.0,504.0,504.0,510.6,507.4888888888889,492.2888888888889,513.0,525.0,504.0
0,518.0,521.0,504.0,18.0,31.0,19.0,502.0,513.0,496.0,512.0,512.0,512.0,512.0,502.0,502.0,502.0,502.0,502.0,513.0,513.0,513.0,513.0,513.0,505.0,505.0,505.0,505.0,505.0,518.0,513.0,513.0,513.0,513.0,523.0,523.0,523.0,523.0,523.0,525.0,525.0,525.0,525.0,525.0,523.0,523.0,523.0,523.0,523.0,521.0,496.0,496.0,496.0,496.0,496.0,496.0,496.0,496.0,496.0,502.0,502.0,502.0,502.0,502.0,504.0,504.0,504.0,504.0,504.0,504.0,509.0444444444444,509.7111111111111,493.7111111111111,518.0,525.0,504.0
0,508.0,519.0,500.0,18.0,31.0,19.0,502.0,519.0,496.0,502.0,502.0,502.0,502.0,513.0,513.0,513.0,513.0,513.0,505.0,505.0,505.0,505.0,505.0,518.0,518.0,518.0,518.0,508.0,508.0,523.0,523.0,523.0,523.0,525.0,525.0,525.0,525.0,525.0,523.0,523.0,523.0,523.0,523.0,521.0,521.0,521.0,521.0,519.0,519.0,496.0,496.0,496.0,496.0,502.0,502.0,502.0,502.0,502.0,504.0,504.0,504.0,504.0,504.0,504.0,504.0,504.0,504.0,500.0,500.0,509.8,512.2888888888889,494.9111111111111,518.0,525.0,504.0
0,518.0,515.0,505.0,18.0,31.0,20.0,505.0,515.0,500.0,513.0,513.0,513.0,513.0,513.0,505.0,505.0,505.0,505.0,505.0,518.0,518.0,518.0,518.0,508.0,508.0,508.0,508.0,508.0,518.0,525.0,525.0,525.0,525.0,525.0,523.0,523.0,523.0,523.0,523.0,521.0,521.0,521.0,521.0,519.0,519.0,519.0,519.0,519.0,515.0,502.0,502.0,502.0,502.0,502.0,504.0,504.0,504.0,504.0,504.0,504.0,504.0,504.0,504.0,500.0,500.0,500.0,500.0,500.0,505.0,509.4,514.4222222222222,495.8666666666667,518.0,525.0,505.0
0,516.0,511.0,515.0,18.0,25.0,30.0,505.0,511.0,500.0,505.0,505.0,505.0,505.0,505.0,518.0,518.0,518.0,518.0,508.0,508.0,508.0,508.0,518.0,518.0,518.0,518.0,518.0,516.0,516.0,523.0,523.0,523.0,523.0,523.0,521.0,521.0,521.0,521.0,519.0,519.0,519.0,519.0,515.0,515.0,515.0,515.0,515.0,511.0,511.0,504.0,504.0,504.0,504.0,504.0,504.0,504.0,504.0,504.0,500.0,500.0,500.0,500.0,505.0,505.0,505.0,505.0,505.0,515.0,515.0,510.55555555555554,516.4,498.1777777777778,518.0,523.0,515.0
0,500.0,510.0,524.0,18.0,20.0,37.0,500.0,510.0,500.0,518.0,518.0,518.0,518.0,508.0,508.0,508.0,508.0,518.0,518.0,518.0,518.0,518.0,516.0,516.0,516.0,516.0,516.0,500.0,500.0,521.0,521.0,521.0,519.0,519.0,519.0,519.0,519.0,515.0,515.0,515.0,515.0,515.0,511.0,511.0,511.0,511.0,511.0,510.0,510.0,504.0,504.0,504.0,500.0,500.0,500.0,500.0,500.0,505.0,505.0,505.0,505.0,505.0,515.0,515.0,515.0,515.0,515.0,524.0,524.0,511.1777777777778,517.1555555555556,501.53333333333336,518.0,521.0,524.0
0,509.0,509.0,538.0,18.0,16.0,42.0,500.0,509.0,500.0,508.0,508.0,508.0,518.0,518.0,518.0,518.0,518.0,516.0,516.0,516.0,516.0,516.0,500.0,500.0,500.0,500.0,500.0,509.0,509.0,519.0,519.0,519.0,515.0,515.0,515.0,515.0,515.0,511.0,511.0,511.0,511.0,511.0,510.0,510.0,510.0,510.0,510.0,509.0,509.0,500.0,500.0,500.0,505.0,505.0,505.0,505.0,505.0,515.0,515.0,515.0,515.0,515.0,524.0,524.0,524.0,524.0,524.0,538.0,538.0,509.9555555555556,517.4222222222222,506.8,518.0,519.0,538.0
0,499.0,509.0,550.0,19.0,16.0,54.0,499.0,509.0,505.0,518.0,518.0,518.0,518.0,516.0,516.0,516.0,516.0,516.0,500.0,500.0,500.0,500.0,500.0,509.0,509.0,509.0,509.0,509.0,499.0,515.0,515.0,515.0,515.0,511.0,511.0,511.0,511.0,511.0,510.0,510.0,510.0,510.0,510.0,509.0,509.0,509.0,509.0,509.0,509.0,505.0,505.0,505.0,505.0,515.0,515.0,515.0,515.0,515.0,524.0,524.0,524.0,524.0,524.0,538.0,538.0,538.0,538.0,538.0,550.0,509.46666666666664,517.0666666666667,510.8,518.0,515.0,550.0
0,508.0,506.0,562.0,19.0,19.0,62.0,499.0,506.0,515.0,516.0,516.0,516.0,516.0,500.0,500.0,500.0,500.0,500.0,509.0,509.0,509.0,509.0,509.0,499.0,499.0,499.0,499.0,499.0,508.0,511.0,511.0,511.0,511.0,510.0,510.0,510.0,510.0,510.0,509.0,509.0,509.0,509.0,509.0,509.0,509.0,509.0,509.0,509.0,506.0,515.0,515.0,515.0,515.0,524.0,524.0,524.0,524.0,524.0,538.0,538.0,538.0,538.0,538.0,550.0,550.0,550.0,550.0,550.0,562.0,509.3333333333333,515.4444444444445,517.0666666666667,516.0,511.0,562.0
0,498.0,499.0,566.0,20.0,24.0,66.0,498.0,499.0,524.0,500.0,500.0,500.0,500.0,509.0,509.0,509.0,509.0,509.0,499.0,499.0,499.0,499.0,508.0,508.0,508.0,508.0,508.0,498.0,498.0,510.0,510.0,510.0,510.0,509.0,509.0,509.0,509.0,509.0,509.0,509.0,509.0,509.0,506.0,506.0,506.0,506.0,506.0,499.0,499.0,524.0,524.0,524.0,524.0,538.0,538.0,538.0,538.0,538.0,550.0,550.0,550.0,550.0,562.0,562.0,562.0,562.0,562.0,566.0,566.0,508.55555555555554,513.1777777777778,523.8222222222222,509.0,510.0,566.0
0,494.0,508.0,555.0,24.0,22.0,66.0,494.0,499.0,538.0,509.0,509.0,509.0,509.0,499.0,499.0,499.0,499.0,499.0,508.0,508.0,508.0,508.0,508.0,498.0,498.0,498.0,498.0,498.0,494.0,509.0,509.0,509.0,509.0,509.0,509.0,509.0,509.0,509.0,506.0,506.0,506.0,506.0,506.0,499.0,499.0,499.0,499.0,499.0,508.0,538.0,538.0,538.0,538.0,550.0,550.0,550.0,550.0,550.0,562.0,562.0,562.0,562.0,562.0,566.0,566.0,566.0,566.0,566.0,555.0,507.68888888888887,510.7111111111111,530.4666666666667,509.0,509.0,566.0
0,497.0,502.0,546.0,24.0,20.0,66.0,494.0,499.0,546.0,499.0,499.0,499.0,508.0,508.0,508.0,508.0,508.0,498.0,498.0,498.0,498.0,498.0,494.0,494.0,494.0,494.0,494.0,497.0,497.0,509.0,509.0,509.0,506.0,506.0,506.0,506.0,506.0,499.0,499.0,499.0,499.0,499.0,508.0,508.0,508.0,508.0,508.0,502.0,502.0,550.0,550.0,550.0,562.0,562.0,562.0,562.0,562.0,566.0,566.0,566.0,566.0,566.0,555.0,555.0,555.0,555.0,555.0,546.0,546.0,505.06666666666666,508.8,537.0444444444445,508.0,509.0,566.0
0,512.0,492.0,531.0,24.0,23.0,61.0,494.0,492.0,531.0,508.0,508.0,508.0,498.0,498.0,498.0,498.0,498.0,494.0,494.0,494.0,494.0,494.0,497.0,497.0,497.0,497.0,497.0,497.0,512.0,506.0,506.0,506.0,499.0,499.0,499.0,499.0,499.0,508.0,508.0,508.0,508.0,508.0,502.0,502.0,502.0,502.0,502.0,502.0,492.0,562.0,562.0,562.0,566.0,566.0,566.0,566.0,566.0,555.0,555.0,555.0,555.0,555.0,546.0,546.0,546.0,546.0,546.0,546.0,531.0,503.73333333333335,506.8666666666667,541.6,512.0,508.0,566.0
0,505.0,496.0,512.0,22.0,19.0,54.0,494.0,492.0,512.0,498.0,498.0,498.0,494.0,494.0,494.0,494.0,494.0,497.0,497.0,497.0,497.0,497.0,497.0,512.0,512.0,512.0,512.0,512.0,505.0,499.0,499.0,499.0,508.0,508.0,508.0,508.0,508.0,502.0,502.0,502.0,502.0,502.0,502.0,492.0,492.0,492.0,492.0,492.0,496.0,566.0,566.0,566.0,555.0,555.0,555.0,555.0,555.0,546.0,546.0,546.0,546.0,546.0,546.0,531.0,531.0,531.0,531.0,531.0,512.0,503.0,504.5777777777778,543.6222222222223,512.0,508.0,566.0
0,500.0,495.0,508.0,18.0,18.0,58.0,494.0,492.0,508.0,494.0,494.0,494.0,497.0,497.0,497.0,497.0,497.0,497.0,512.0,512.0,512.0,512.0,512.0,505.0,505.0,505.0,505.0,505.0,500.0,508.0,508.0,508.0,502.0,502.0,502.0,502.0,502.0,502.0,492.0,492.0,492.0,492.0,492.0,496.0,496.0,496.0,496.0,496.0,495.0,555.0,555.0,555.0,546.0,546.0,546.0,546.0,546.0,546.0,531.0,531.0,531.0,531.0,531.0,512.0,512.0,512.0,512.0,512.0,508.0,502.3777777777778,502.93333333333334,542.8,512.0,508.0,555.0
0,510.0,493.0,502.0,18.0,17.0,64.0,497.0,492.0,502.0,497.0,497.0,497.0,497.0,512.0,512.0,512.0,512.0,512.0,505.0,505.0,505.0,505.0,505.0,500.0,500.0,500.0,500.0,500.0,510.0,502.0,502.0,502.0,502.0,492.0,492.0,492.0,492.0,492.0,496.0,496.0,496.0,496.0,496.0,495.0,495.0,495.0,495.0,495.0,493.0,546.0,546.0,546.0,546.0,531.0,531.0,531.0,531.0,531.0,512.0,512.0,512.0,512.0,512.0,508.0,508.0,508.0,508.0,508.0,502.0,502.2,501.26666666666665,540.2666666666667,512.0,502.0,546.0
0,498.0,492.0,505.0,18.0,17.0,64.0,497.0,492.0,502.0,497.0,512.0,512.0,512.0,512.0,512.0,505.0,505.0,505.0,505.0,505.0,500.0,500.0,500.0,500.0,500.0,510.0,510.0,510.0,498.0,502.0,492.0,492.0,492.0,492.0,492.0,496.0,496.0,496.0,496.0,496.0,495.0,495.0,495.0,495.0,495.0,493.0,493.0,493.0,492.0,546.0,531.0,531.0,531.0,531.0,531.0,512.0,512.0,512.0,512.0,512.0,508.0,508.0,508.0,508.0,508.0,502.0,502.0,502.0,505.0,502.0,500.1777777777778,537.9333333333333,512.0,502.0,546.0
0,518.0,500.0,510.0,24.0,17.0,64.0,498.0,492.0,502.0,512.0,512.0,505.0,505.0,505.0,505.0,505.0,500.0,500.0,500.0,500.0,500.0,510.0,510.0,510.0,498.0,498.0,498.0,518.0,518.0,492.0,492.0,496.0,496.0,496.0,496.0,496.0,495.0,495.0,495.0,495.0,495.0,493.0,493.0,493.0,492.0,492.0,492.0,500.0,500.0,531.0,531.0,512.0,512.0,512.0,512.0,512.0,508.0,508.0,508.0,508.0,508.0,502.0,502.0,502.0,505.0,505.0,505.0,510.0,510.0,502.8,499.02222222222224,534.1555555555556,518.0,500.0,531.0
0,492.0,511.0,519.0,26.0,19.0,64.0,492.0,492.0,502.0,505.0,505.0,500.0,500.0,500.0,500.0,500.0,510.0,510.0,510.0,498.0,498.0,498.0,518.0,518.0,518.0,518.0,518.0,492.0,492.0,496.0,496.0,495.0,495.0,495.0,495.0,495.0,493.0,493.0,493.0,492.0,492.0,492.0,500.0,500.0,500.0,500.0,500.0,511.0,511.0,512.0,512.0,508.0,508.0,508.0,508.0,508.0,502.0,502.0,502.0,505.0,505.0,505.0,510.0,510.0,510.0,510.0,510.0,519.0,519.0,502.9555555555556,498.77777777777777,529.0444444444445,518.0,511.0,519.0
0,506.0,515.0,521.0,26.0,23.0,64.0,492.0,492.0,502.0,500.0,500.0,500.0,500.0,510.0,510.0,510.0,498.0,498.0,498.0,518.0,518.0,518.0,518.0,518.0,492.0,492.0,492.0,506.0,506.0,495.0,495.0,495.0,495.0,493.0,493.0,493.0,492.0,492.0,492.0,500.0,500.0,500.0,500.0,500.0,511.0,511.0,511.0,515.0,515.0,508.0,508.0,508.0,508.0,502.0,502.0,502.0,505.0,505.0,505.0,510.0,510.0,510.0,510.0,510.0,519.0,519.0,519.0,521.0,521.0,502.9555555555556,499.6,526.0888888888888,518.0,515.0,521.0
0,512.0,512.0,523.0,26.0,23.0,53.0,492.0,492.0,502.0,510.0,510.0,510.0,498.0,498.0,498.0,518.0,518.0,518.0,518.0,518.0,492.0,492.0,492.0,506.0,506.0,506.0,506.0,512.0,512.0,493.0,493.0,493.0,492.0,492.0,492.0,500.0,500.0,500.0,500.0,500.0,511.0,511.0,511.0,515.0,515.0,515.0,515.0,512.0,512.0,502.0,502.0,502.0,505.0,505.0,505.0,510.0,510.0,510.0,510.0,510.0,519.0,519.0,519.0,521.0,521.0,521.0,521.0,523.0,523.0,504.02222222222224,500.68888888888887,522.4222222222222,518.0,515.0,523.0
0,542.0,522.0,526.0,50.0,30.0,44.0,492.0,492.0,505.0,498.0,498.0,518.0,518.0,518.0,518.0,518.0,492.0,492.0,492.0,506.0,506.0,506.0,506.0,512.0,512.0,512.0,512.0,542.0,542.0,492.0,492.0,500.0,500.0,500.0,500.0,500.0,511.0,511.0,511.0,515.0,515.0,515.0,515.0,512.0,512.0,512.0,512.0,522.0,522.0,505.0,505.0,510.0,510.0,510.0,510.0,510.0,519.0,519.0,519.0,521.0,521.0,521.0,521.0,523.0,523.0,523.0,523.0,526.0,526.0,506.9555555555556,501.4888888888889,519.7111111111111,542.0,522.0,526.0
0,510.0,525.0,524.0,50.0,33.0,44.0,492.0,500.0,510.0,518.0,518.0,518.0,518.0,492.0,492.0,492.0,506.0,506.0,506.0,506.0,512.0,512.0,512.0,512.0,542.0,542.0,542.0,542.0,510.0,500.0,500.0,500.0,500.0,511.0,511.0,511.0,515.0,515.0,515.0,515.0,512.0,512.0,512.0,512.0,522.0,522.0,522.0,522.0,525.0,510.0,510.0,510.0,510.0,519.0,519.0,519.0,521.0,521.0,521.0,521.0,523.0,523.0,523.0,523.0,526.0,526.0,526.0,526.0,524.0,509.24444444444447,502.8888888888889,518.3333333333334,542.0,525.0,526.0
0,501.0,530.0,528.0,50.0,38.0,29.0,492.0,511.0,519.0,492.0,506.0,506.0,506.0,506.0,512.0,512.0,512.0,512.0,542.0,542.0,542.0,542.0,510.0,510.0,510.0,510.0,510.0,501.0,501.0,511.0,515.0,515.0,515.0,515.0,512.0,512.0,512.0,512.0,522.0,522.0,522.0,522.0,525.0,525.0,525.0,525.0,525.0,530.0,530.0,519.0,521.0,521.0,521.0,521.0,523.0,523.0,523.0,523.0,526.0,526.0,526.0,526.0,524.0,524.0,524.0,524.0,524.0,528.0,528.0,509.5777777777778,506.84444444444443,516.5777777777778,542.0,530.0,528.0
0,514.0,519.0,527.0,50.0,38.0,26.0,501.0,512.0,521.0,506.0,512.0,512.0,512.0,512.0,542.0,542.0,542.0,542.0,510.0,510.0,510.0,510.0,510.0,501.0,501.0,501.0,501.0,514.0,514.0,515.0,512.0,512.0,512.0,512.0,522.0,522.0,522.0,522.0,525.0,525.0,525.0,525.0,525.0,530.0,530.0,530.0,530.0,519.0,519.0,521.0,523.0,523.0,523.0,523.0,526.0,526.0,526.0,526.0,524.0,524.0,524.0,524.0,524.0,528.0,528.0,528.0,528.0,527.0,527.0,509.4888888888889,509.55555555555554,517.1111111111111,542.0,530.0,528.0
0,502.0,518.0,519.0,50.0,38.0,26.0,501.0,512.0,519.0,512.0,542.0,542.0,542.0,542.0,510.0,510.0,510.0,510.0,510.0,501.0,501.0,501.0,501.0,514.0,514.0,514.0,514.0,502.0,502.0,512.0,522.0,522.0,522.0,522.0,525.0,525.0,525.0,525.0,525.0,530.0,530.0,530.0,530.0,519.0,519.0,519.0,519.0,518.0,518.0,523.0,526.0,526.0,526.0,526.0,524.0,524.0,524.0,524.0,524.0,528.0,528.0,528.0,528.0,527.0,527.0,527.0,527.0,519.0,519.0,509.8666666666667,511.5777777777778,518.1777777777778,542.0,530.0,528.0
0,500.0,513.0,511.0,50.0,38.0,26.0,500.0,513.0,511.0,542.0,510.0,510.0,510.0,510.0,510.0,501.0,501.0,501.0,501.0,514.0,514.0,514.0,514.0,502.0,502.0,502.0,502.0,502.0,500.0,522.0,525.0,525.0,525.0,525.0,525.0,530.0,530.0,530.0,530.0,519.0,519.0,519.0,519.0,518.0,518.0,518.0,518.0,518.0,513.0,526.0,524.0,524.0,524.0,524.0,524.0,528.0,528.0,528.0,528.0,527.0,527.0,527.0,527.0,519.0,519.0,519.0,519.0,519.0,511.0,510.0,513.5111111111111,518.9777777777778,542.0,530.0,528.0
0,508.0,513.0,507.0,50.0,38.0,23.0,500.0,513.0,507.0,510.0,510.0,501.0,501.0,501.0,501.0,514.0,514.0,514.0,514.0,502.0,502.0,502.0,502.0,502.0,500.0,500.0,500.0,508.0,508.0,525.0,525.0,530.0,530.0,530.0,530.0,519.0,519.0,519.0,519.0,518.0,518.0,518.0,518.0,518.0,513.0,513.0,513.0,513.0,513.0,524.0,524.0,528.0,528.0,528.0,528.0,527.0,527.0,527.0,527.0,519.0,519.0,519.0,519.0,519.0,511.0,511.0,511.0,507.0,507.0,509.73333333333335,515.3111111111111,519.5333333333333,514.0,530.0,528.0
0,507.0,510.0,497.0,50.0,30.0,31.0,500.0,510.0,497.0,501.0,501.0,514.0,514.0,514.0,514.0,502.0,502.0,502.0,502.0,502.0,500.0,500.0,500.0,508.0,508.0,508.0,508.0,507.0,507.0,530.0,530.0,519.0,519.0,519.0,519.0,518.0,518.0,518.0,518.0,518.0,513.0,513.0,513.0,513.0,513.0,513.0,513.0,510.0,510.0,528.0,528.0,527.0,527.0,527.0,527.0,519.0,519.0,519.0,519.0,519.0,511.0,511.0,511.0,507.0,507.0,507.0,507.0,497.0,497.0,509.68888888888887,516.6888888888889,519.0444444444445,514.0,530.0,528.0
0,509.0,510.0,476.0,50.0,20.0,52.0,500.0,510.0,476.0,514.0,514.0,502.0,502.0,502.0,502.0,502.0,500.0,500.0,500.0,508.0,508.0,508.0,508.0,507.0,507.0,507.0,507.0,509.0,509.0,519.0,519.0,518.0,518.0,518.0,518.0,518.0,513.0,513.0,513.0,513.0,513.0,513.0,513.0,510.0,510.0,510.0,510.0,510.0,510.0,527.0,527.0,519.0,519.0,519.0,519.0,519.0,511.0,511.0,511.0,507.0,507.0,507.0,507.0,497.0,497.0,497.0,497.0,476.0,476.0,509.3777777777778,517.3333333333334,516.7555555555556,514.0,519.0,527.0
0,497.0,506.0,463.0,45.0,24.0,65.0,497.0,506.0,463.0,502.0,502.0,502.0,500.0,500.0,500.0,508.0,508.0,508.0,508.0,507.0,507.0,507.0,507.0,509.0,509.0,509.0,509.0,497.0,497.0,518.0,518.0,518.0,513.0,513.0,513.0,513.0,513.0,513.0,513.0,510.0,510.0,510.0,510.0,510.0,510.0,510.0,510.0,506.0,506.0,519.0,519.0,519.0,511.0,511.0,511.0,507.0,507.0,507.0,507.0,497.0,497.0,497.0,497.0,476.0,476.0,476.0,476.0,463.0,463.0,509.73333333333335,516.8888888888889,512.2666666666667,509.0,518.0,519.0
0,501.0,504.0,465.0,45.0,26.0,65.0,497.0,504.0,463.0,500.0,500.0,508.0,508.0,508.0,508.0,507.0,507.0,507.0,507.0,509.0,509.0,509.0,509.0,497.0,497.0,497.0,497.0,501.0,501.0,513.0,513.0,513.0,513.0,513.0,513.0,510.0,510.0,510.0,510.0,510.0,510.0,510.0,510.0,506.0,506.0,506.0,506.0,504.0,504.0,511.0,511.0,507.0,507.0,507.0,507.0,497.0,497.0,497.0,497.0,476.0,476.0,476.0,476.0,463.0,463.0,463.0,463.0,465.0,465.0,508.84444444444443,516.1333333333333,507.1111111111111,509.0,513.0,511.0
0,497.0,500.0,471.0,45.0,30.0,65.0,497.0,500.0,463.0,508.0,508.0,507.0,507.0,507.0,507.0,509.0,509.0,509.0,509.0,497.0,497.0,497.0,497.0,501.0,501.0,501.0,501.0,497.0,497.0,513.0,513.0,510.0,510.0,510.0,510.0,510.0,510.0,510.0,510.0,506.0,506.0,506.0,506.0,504.0,504.0,504.0,504.0,500.0,500.0,507.0,507.0,497.0,497.0,497.0,497.0,476.0,476.0,476.0,476.0,463.0,463.0,463.0,463.0,465.0,465.0,465.0,465.0,471.0,471.0,506.35555555555555,514.8,502.0888888888889,509.0,513.0,507.0
0,500.0,499.0,471.0,17.0,31.0,65.0,497.0,499.0,463.0,507.0,507.0,509.0,509.0,509.0,509.0,497.0,497.0,497.0,497.0,501.0,501.0,501.0,501.0,497.0,497.0,497.0,497.0,500.0,500.0,510.0,510.0,510.0,510.0,510.0,510.0,506.0,506.0,506.0,506.0,504.0,504.0,504.0,504.0,500.0,500.0,500.0,500.0,499.0,499.0,497.0,497.0,476.0,476.0,476.0,476.0,463.0,463.0,463.0,463.0,465.0,465.0,465.0,465.0,471.0,471.0,471.0,471.0,471.0,471.0,503.9111111111111,512.6666666666666,497.2888888888889,509.0,510.0,497.0
0,501.0,501.0,470.0,17.0,31.0,65.0,497.0,499.0,463.0,509.0,509.0,509.0,497.0,497.0,497.0,497.0,501.0,501.0,501.0,501.0,497.0,497.0,497.0,497.0,500.0,500.0,500.0,501.0,501.0,510.0,510.0,510.0,506.0,506.0,506.0,506.0,504.0,504.0,504.0,504.0,500.0,500.0,500.0,500.0,499.0,499.0,499.0,501.0,501.0,476.0,476.0,476.0,463.0,463.0,463.0,463.0,465.0,465.0,465.0,465.0,471.0,471.0,471.0,471.0,471.0,471.0,471.0,470.0,470.0,503.2888888888889,511.02222222222224,493.7111111111111,509.0,510.0,476.0
0,508.0,498.0,480.0,17.0,32.0,65.0,497.0,498.0,463.0,497.0,497.0,497.0,497.0,501.0,501.0,501.0,501.0,497.0,497.0,497.0,497.0,500.0,500.0,500.0,501.0,501.0,501.0,508.0,508.0,506.0,506.0,506.0,506.0,504.0,504.0,504.0,504.0,500.0,500.0,500.0,500.0,499.0,499.0,499.0,501.0,501.0,501.0,498.0,498.0,463.0,463.0,463.0,463.0,465.0,465.0,465.0,465.0,471.0,471.0,471.0,471.0,471.0,471.0,471.0,470.0,470.0,470.0,480.0,480.0,503.6,508.9555555555556,490.2888888888889,508.0,506.0,480.0
0,538.0,496.0,485.0,41.0,23.0,64.0,497.0,496.0,465.0,501.0,501.0,501.0,501.0,497.0,497.0,497.0,497.0,500.0,500.0,500.0,501.0,501.0,501.0,508.0,508.0,508.0,508.0,538.0,538.0,504.0,504.0,504.0,504.0,500.0,500.0,500.0,500.0,499.0,499.0,499.0,501.0,501.0,501.0,498.0,498.0,498.0,498.0,496.0,496.0,465.0,465.0,465.0,465.0,471.0,471.0,471.0,471.0,471.0,471.0,471.0,470.0,470.0,470.0,480.0,480.0,480.0,480.0,485.0,485.0,504.68888888888887,506.75555555555553,486.31111111111113,538.0,504.0,485.0
0,510.0,493.0,480.0,41.0,25.0,56.0,497.0,493.0,470.0,497.0,497.0,497.0,497.0,500.0,500.0,500.0,501.0,501.0,501.0,508.0,508.0,508.0,508.0,538.0,538.0,538.0,538.0,510.0,510.0,500.0,500.0,500.0,500.0,499.0,499.0,499.0,501.0,501.0,501.0,498.0,498.0,498.0,498.0,496.0,496.0,496.0,496.0,493.0,493.0,471.0,471.0,471.0,471.0,471.0,471.0,471.0,470.0,470.0,470.0,480.0,480.0,480.0,480.0,485.0,485.0,485.0,485.0,480.0,480.0,506.3777777777778,504.64444444444445,482.8888888888889,538.0,501.0,485.0
0,515.0,494.0,479.0,41.0,20.0,48.0,497.0,493.0,470.0,497.0,500.0,500.0,500.0,501.0,501.0,501.0,508.0,508.0,508.0,508.0,538.0,538.0,538.0,538.0,510.0,510.0,510.0,510.0,515.0,500.0,499.0,499.0,499.0,501.0,501.0,501.0,498.0,498.0,498.0,498.0,496.0,496.0,496.0,496.0,493.0,493.0,493.0,493.0,494.0,471.0,471.0,471.0,471.0,470.0,470.0,470.0,480.0,480.0,480.0,480.0,485.0,485.0,485.0,485.0,480.0,480.0,480.0,480.0,479.0,507.06666666666666,503.1111111111111,480.44444444444446,538.0,501.0,485.0
0,516.0,501.0,489.0,41.0,17.0,34.0,501.0,493.0,470.0,501.0,508.0,508.0,508.0,508.0,538.0,538.0,538.0,538.0,510.0,510.0,510.0,510.0,515.0,515.0,515.0,515.0,516.0,516.0,516.0,501.0,498.0,498.0,498.0,498.0,496.0,496.0,496.0,496.0,493.0,493.0,493.0,493.0,494.0,494.0,494.0,494.0,501.0,501.0,501.0,470.0,480.0,480.0,480.0,480.0,485.0,485.0,485.0,485.0,480.0,480.0,480.0,480.0,479.0,479.0,479.0,479.0,489.0,489.0,489.0,508.4222222222222,501.0444444444444,477.2,538.0,501.0,489.0
0,515.0,508.0,512.0,41.0,17.0,49.0,508.0,493.0,479.0,508.0,538.0,538.0,538.0,538.0,510.0,510.0,510.0,510.0,515.0,515.0,515.0,515.0,516.0,516.0,516.0,516.0,516.0,515.0,515.0,498.0,496.0,496.0,496.0,496.0,493.0,493.0,493.0,493.0,494.0,494.0,494.0,494.0,501.0,501.0,501.0,501.0,501.0,508.0,508.0,480.0,485.0,485.0,485.0,485.0,480.0,480.0,480.0,480.0,479.0,479.0,479.0,479.0,489.0,489.0,489.0,489.0,489.0,512.0,512.0,509.1777777777778,500.55555555555554,477.5111111111111,538.0,508.0,512.0
0,512.0,510.0,511.0,41.0,17.0,49.0,510.0,493.0,479.0,538.0,510.0,510.0,510.0,510.0,515.0,515.0,515.0,515.0,516.0,516.0,516.0,516.0,516.0,515.0,515.0,515.0,515.0,512.0,512.0,496.0,493.0,493.0,493.0,493.0,494.0,494.0,494.0,494.0,501.0,501.0,501.0,501.0,501.0,508.0,508.0,508.0,508.0,510.0,510.0,485.0,480.0,480.0,480.0,480.0,479.0,479.0,479.0,479.0,489.0,489.0,489.0,489.0,489.0,512.0,512.0,512.0,512.0,511.0,511.0,509.5777777777778,500.46666666666664,480.6666666666667,538.0,510.0,512.0
0,509.0,518.0,523.0,41.0,25.0,58.0,509.0,493.0,479.0,510.0,515.0,515.0,515.0,515.0,516.0,516.0,516.0,516.0,516.0,515.0,515.0,515.0,515.0,512.0,512.0,512.0,512.0,509.0,509.0,493.0,494.0,494.0,494.0,494.0,501.0,501.0,501.0,501.0,501.0,508.0,508.0,508.0,508.0,510.0,510.0,510.0,510.0,518.0,518.0,480.0,479.0,479.0,479.0,479.0,489.0,489.0,489.0,489.0,489.0,512.0,512.0,512.0,512.0,511.0,511.0,511.0,511.0,523.0,523.0,510.77777777777777,501.1777777777778,485.46666666666664,516.0,518.0,523.0
0,516.0,522.0,539.0,41.0,29.0,69.0,509.0,494.0,479.0,515.0,516.0,516.0,516.0,516.0,516.0,515.0,515.0,515.0,515.0,512.0,512.0,512.0,512.0,509.0,509.0,509.0,509.0,516.0,516.0,494.0,501.0,501.0,501.0,501.0,501.0,508.0,508.0,508.0,508.0,510.0,510.0,510.0,510.0,518.0,518.0,518.0,518.0,522.0,522.0,479.0,489.0,489.0,489.0,489.0,489.0,512.0,512.0,512.0,512.0,511.0,511.0,511.0,511.0,523.0,523.0,523.0,523.0,539.0,539.0,511.8,502.6,491.3333333333333,516.0,522.0,539.0
0,505.0,526.0,548.0,38.0,33.0,78.0,505.0,501.0,489.0,516.0,516.0,515.0,515.0,515.0,515.0,512.0,512.0,512.0,512.0,509.0,509.0,509.0,509.0,516.0,516.0,516.0,516.0,505.0,505.0,501.0,501.0,508.0,508.0,508.0,508.0,510.0,510.0,510.0,510.0,518.0,518.0,518.0,518.0,522.0,522.0,522.0,522.0,526.0,526.0,489.0,489.0,512.0,512.0,512.0,512.0,511.0,511.0,511.0,511.0,523.0,523.0,523.0,523.0,539.0,539.0,539.0,539.0,548.0,548.0,513.0,504.73333333333335,497.77777777777777,516.0,526.0,548.0
0,504.0,527.0,545.0,38.0,34.0,78.0,504.0,508.0,511.0,515.0,515.0,515.0,515.0,512.0,512.0,512.0,512.0,509.0,509.0,509.0,509.0,516.0,516.0,516.0,516.0,505.0,505.0,505.0,504.0,508.0,508.0,508.0,508.0,510.0,510.0,510.0,510.0,518.0,518.0,518.0,518.0,522.0,522.0,522.0,522.0,526.0,526.0,526.0,527.0,512.0,512.0,512.0,512.0,511.0,511.0,511.0,511.0,523.0,523.0,523.0,523.0,539.0,539.0,539.0,539.0,548.0,548.0,548.0,545.0,513.2,505.9555555555556,501.1333333333333,516.0,527.0,548.0
0,513.0,524.0,533.0,34.0,34.0,69.0,504.0,510.0,511.0,512.0,512.0,512.0,512.0,509.0,509.0,509.0,509.0,516.0,516.0,516.0,516.0,505.0,505.0,505.0,504.0,504.0,504.0,513.0,513.0,510.0,510.0,510.0,510.0,518.0,518.0,518.0,518.0,522.0,522.0,522.0,522.0,526.0,526.0,526.0,527.0,527.0,527.0,524.0,524.0,511.0,511.0,511.0,511.0,523.0,523.0,523.0,523.0,539.0,539.0,539.0,539.0,548.0,548.0,548.0,545.0,545.0,545.0,533.0,533.0,513.8888888888889,508.1777777777778,507.24444444444447,516.0,527.0,548.0
0,533.0,519.0,535.0,34.0,34.0,69.0,504.0,518.0,523.0,509.0,509.0,509.0,516.0,516.0,516.0,516.0,505.0,505.0,505.0,504.0,504.0,504.0,513.0,513.0,513.0,513.0,513.0,533.0,533.0,518.0,518.0,518.0,522.0,522.0,522.0,522.0,526.0,526.0,526.0,527.0,527.0,527.0,524.0,524.0,524.0,524.0,524.0,519.0,519.0,523.0,523.0,523.0,539.0,539.0,539.0,539.0,548.0,548.0,548.0,545.0,545.0,545.0,533.0,533.0,533.0,533.0,533.0,535.0,535.0,514.6666666666666,510.8888888888889,513.1111111111111,533.0,527.0,548.0
0,508.0,511.0,534.0,29.0,34.0,69.0,504.0,511.0,533.0,516.0,516.0,516.0,516.0,505.0,505.0,505.0,504.0,504.0,504.0,513.0,513.0,513.0,513.0,513.0,533.0,533.0,533.0,533.0,508.0,522.0,522.0,522.0,522.0,526.0,526.0,526.0,527.0,527.0,527.0,524.0,524.0,524.0,524.0,524.0,519.0,519.0,519.0,519.0,511.0,539.0,539.0,539.0,539.0,548.0,548.0,548.0,545.0,545.0,545.0,533.0,533.0,533.0,533.0,533.0,535.0,535.0,535.0,535.0,534.0,513.7777777777778,512.2444444444444,516.4222222222222,533.0,527.0,548.0
0,509.0,509.0,524.0,29.0,33.0,69.0,504.0,509.0,524.0,505.0,505.0,504.0,504.0,504.0,513.0,513.0,513.0,513.0,513.0,533.0,533.0,533.0,533.0,508.0,508.0,508.0,508.0,509.0,509.0,526.0,526.0,527.0,527.0,527.0,524.0,524.0,524.0,524.0,524.0,519.0,519.0,519.0,519.0,511.0,511.0,511.0,511.0,509.0,509.0,548.0,548.0,545.0,545.0,545.0,533.0,533.0,533.0,533.0,533.0,535.0,535.0,535.0,535.0,534.0,534.0,534.0,534.0,524.0,524.0,513.4888888888889,514.1333333333333,522.0,533.0,527.0,548.0
0,513.0,504.0,527.0,29.0,26.0,59.0,504.0,504.0,524.0,504.0,513.0,513.0,513.0,513.0,513.0,533.0,533.0,533.0,533.0,508.0,508.0,508.0,508.0,509.0,509.0,509.0,509.0,513.0,513.0,527.0,524.0,524.0,524.0,524.0,524.0,519.0,519.0,519.0,519.0,511.0,511.0,511.0,511.0,509.0,509.0,509.0,509.0,504.0,504.0,545.0,533.0,533.0,533.0,533.0,533.0,535.0,535.0,535.0,535.0,534.0,534.0,534.0,534.0,524.0,524.0,524.0,524.0,527.0,527.0,513.1111111111111,515.0888888888888,525.9111111111112,533.0,527.0,545.0
0,504.0,507.0,528.0,29.0,23.0,37.0,504.0,504.0,524.0,513.0,513.0,533.0,533.0,533.0,533.0,508.0,508.0,508.0,508.0,509.0,509.0,509.0,509.0,513.0,513.0,513.0,513.0,504.0,504.0,524.0,524.0,519.0,519.0,519.0,519.0,511.0,511.0,511.0,511.0,509.0,509.0,509.0,509.0,504.0,504.0,504.0,504.0,507.0,507.0,533.0,533.0,535.0,535.0,535.0,535.0,534.0,534.0,534.0,534.0,524.0,524.0,524.0,524.0,527.0,527.0,527.0,527.0,528.0,528.0,512.4444444444445,515.4888888888889,529.3333333333334,533.0,524.0,535.0
0,511.0,510.0,529.0,29.0,23.0,37.0,504.0,504.0,524.0,533.0,533.0,508.0,508.0,508.0,508.0,509.0,509.0,509.0,509.0,513.0,513.0,513.0,513.0,504.0,504.0,504.0,504.0,511.0,511.0,519.0,519.0,511.0,511.0,511.0,511.0,509.0,509.0,509.0,509.0,504.0,504.0,504.0,504.0,507.0,507.0,507.0,507.0,510.0,510.0,535.0,535.0,534.0,534.0,534.0,534.0,524.0,524.0,524.0,524.0,527.0,527.0,527.0,527.0,528.0,528.0,528.0,528.0,529.0,529.0,511.77777777777777,515.5333333333333,530.8,533.0,519.0,535.0
0,503.0,505.0,513.0,30.0,23.0,35.0,503.0,504.0,513.0,508.0,508.0,509.0,509.0,509.0,509.0,513.0,513.0,513.0,513.0,504.0,504.0,504.0,504.0,511.0,511.0,511.0,511.0,503.0,503.0,511.0,511.0,509.0,509.0,509.0,509.0,504.0,504.0,504.0,504.0,507.0,507.0,507.0,507.0,510.0,510.0,510.0,510.0,505.0,505.0,534.0,534.0,524.0,524.0,524.0,524.0,527.0,527.0,527.0,527.0,528.0,528.0,528.0,528.0,529.0,529.0,529.0,529.0,513.0,513.0,511.3333333333333,515.3111111111111,531.6888888888889,513.0,511.0,534.0
0,512.0,498.0,509.0,30.0,29.0,39.0,503.0,498.0,509.0,509.0,509.0,513.0,513.0,513.0,513.0,504.0,504.0,504.0,504.0,511.0,511.0,511.0,511.0,503.0,503.0,503.0,503.0,512.0,512.0,509.0,509.0,504.0,504.0,504.0,504.0,507.0,507.0,507.0,507.0,510.0,510.0,510.0,510.0,505.0,505.0,505.0,505.0,498.0,498.0,524.0,524.0,527.0,527.0,527.0,527.0,528.0,528.0,528.0,528.0,529.0,529.0,529.0,529.0,513.0,513.0,513.0,513.0,509.0,509.0,511.2,513.8444444444444,530.6222222222223,513.0,510.0,529.0
0,504.0,499.0,505.0,30.0,29.0,43.0,503.0,498.0,505.0,513.0,513.0,504.0,504.0,504.0,504.0,511.0,511.0,511.0,511.0,503.0,503.0,503.0,503.0,512.0,512.0,512.0,512.0,504.0,504.0,504.0,504.0,507.0,507.0,507.0,507.0,510.0,510.0,510.0,510.0,505.0,505.0,505.0,505.0,498.0,498.0,498.0,498.0,499.0,499.0,527.0,527.0,528.0,528.0,528.0,528.0,529.0,529.0,529.0,529.0,513.0,513.0,513.0,513.0,509.0,509.0,509.0,509.0,505.0,505.0,510.4888888888889,511.75555555555553,527.7777777777778,513.0,510.0,529.0
0,504.0,501.0,498.0,30.0,29.0,47.0,503.0,498.0,498.0,504.0,504.0,511.0,511.0,511.0,511.0,503.0,503.0,503.0,503.0,512.0,512.0,512.0,512.0,504.0,504.0,504.0,504.0,504.0,504.0,507.0,507.0,510.0,510.0,510.0,510.0,505.0,505.0,505.0,505.0,498.0,498.0,498.0,498.0,499.0,499.0,499.0,499.0,501.0,501.0,528.0,528.0,529.0,529.0,529.0,529.0,513.0,513.0,513.0,513.0,509.0,509.0,509.0,509.0,505.0,505.0,505.0,505.0,498.0,498.0,510.4222222222222,509.4222222222222,523.7111111111111,512.0,510.0,529.0
0,503.0,495.0,498.0,30.0,29.0,37.0,503.0,495.0,498.0,511.0,511.0,503.0,503.0,503.0,503.0,512.0,512.0,512.0,512.0,504.0,504.0,504.0,504.0,504.0,504.0,504.0,504.0,503.0,503.0,510.0,510.0,505.0,505.0,505.0,505.0,498.0,498.0,498.0,498.0,499.0,499.0,499.0,499.0,501.0,501.0,501.0,501.0,495.0,495.0,529.0,529.0,513.0,513.0,513.0,513.0,509.0,509.0,509.0,509.0,505.0,505.0,505.0,505.0,498.0,498.0,498.0,498.0,498.0,498.0,509.97777777777776,506.97777777777776,520.0666666666667,512.0,510.0,529.0
0,491.0,497.0,501.0,42.0,24.0,37.0,491.0,495.0,498.0,503.0,503.0,512.0,512.0,512.0,512.0,504.0,504.0,504.0,504.0,504.0,504.0,504.0,504.0,503.0,503.0,503.0,503.0,491.0,491.0,505.0,505.0,498.0,498.0,498.0,498.0,499.0,499.0,499.0,499.0,501.0,501.0,501.0,501.0,495.0,495.0,495.0,495.0,497.0,497.0,513.0,513.0,509.0,509.0,509.0,509.0,505.0,505.0,505.0,505.0,498.0,498.0,498.0,498.0,498.0,498.0,498.0,498.0,501.0,501.0,508.1111111111111,504.6,517.0444444444445,512.0,505.0,513.0
0,499.0,494.0,505.0,22.0,17.0,36.0,491.0,494.0,498.0,512.0,512.0,504.0,504.0,504.0,504.0,504.0,504.0,504.0,504.0,503.0,503.0,503.0,503.0,491.0,491.0,491.0,491.0,499.0,499.0,498.0,498.0,499.0,499.0,499.0,499.0,501.0,501.0,501.0,501.0,495.0,495.0,495.0,495.0,497.0,497.0,497.0,497.0,494.0,494.0,509.0,509.0,505.0,505.0,505.0,505.0,498.0,498.0,498.0,498.0,498.0,498.0,498.0,498.0,501.0,501.0,501.0,501.0,505.0,505.0,505.2888888888889,502.68888888888887,514.2222222222222,512.0,501.0,509.0
0,523.0,499.0,507.0,32.0,16.0,31.0,491.0,494.0,498.0,504.0,504.0,504.0,504.0,504.0,504.0,503.0,503.0,503.0,503.0,491.0,491.0,491.0,491.0,499.0,499.0,499.0,499.0,523.0,523.0,499.0,499.0,501.0,501.0,501.0,501.0,495.0,495.0,495.0,495.0,497.0,497.0,497.0,497.0,494.0,494.0,494.0,494.0,499.0,499.0,505.0,505.0,498.0,498.0,498.0,498.0,498.0,498.0,498.0,498.0,501.0,501.0,501.0,501.0,505.0,505.0,505.0,505.0,507.0,507.0,505.53333333333336,501.44444444444446,511.9555555555556,523.0,501.0,507.0
0,504.0,501.0,502.0,32.0,16.0,31.0,491.0,494.0,498.0,504.0,504.0,504.0,503.0,503.0,503.0,503.0,491.0,491.0,491.0,491.0,499.0,499.0,499.0,499.0,523.0,523.0,523.0,504.0,504.0,501.0,501.0,501.0,495.0,495.0,495.0,495.0,497.0,497.0,497.0,497.0,494.0,494.0,494.0,494.0,499.0,499.0,499.0,501.0,501.0,498.0,498.0,498.0,498.0,498.0,498.0,498.0,501.0,501.0,501.0,501.0,505.0,505.0,505.0,505.0,507.0,507.0,507.0,502.0,502.0,505.6222222222222,500.8666666666667,510.6,523.0,501.0,507.0
0,505.0,508.0,510.0,32.0,16.0,31.0,491.0,494.0,498.0,503.0,503.0,503.0,491.0,491.0,491.0,491.0,499.0,499.0,499.0,499.0,523.0,523.0,523.0,504.0,504.0,504.0,504.0,504.0,505.0,495.0,495.0,495.0,497.0,497.0,497.0,497.0,494.0,494.0,494.0,494.0,499.0,499.0,499.0,501.0,501.0,501.0,501.0,501.0,508.0,498.0,498.0,498.0,501.0,501.0,501.0,501.0,505.0,505.0,505.0,505.0,507.0,507.0,507.0,502.0,502.0,502.0,502.0,502.0,510.0,504.84444444444443,500.75555555555553,508.55555555555554,523.0,508.0,510.0
0,504.0,510.0,518.0,32.0,16.0,31.0,491.0,494.0,501.0,491.0,491.0,499.0,499.0,499.0,499.0,523.0,523.0,523.0,504.0,504.0,504.0,504.0,504.0,505.0,505.0,505.0,504.0,504.0,504.0,497.0,497.0,494.0,494.0,494.0,494.0,499.0,499.0,499.0,501.0,501.0,501.0,501.0,501.0,508.0,508.0,508.0,510.0,510.0,510.0,501.0,501.0,505.0,505.0,505.0,505.0,507.0,507.0,507.0,502.0,502.0,502.0,502.0,502.0,510.0,510.0,510.0,518.0,518.0,518.0,504.73333333333335,500.93333333333334,507.06666666666666,523.0,510.0,518.0
0,515.0,516.0,531.0,32.0,22.0,33.0,499.0,494.0,502.0,499.0,499.0,523.0,523.0,523.0,504.0,504.0,504.0,504.0,504.0,505.0,505.0,505.0,504.0,504.0,504.0,504.0,504.0,515.0,515.0,494.0,494.0,499.0,499.0,499.0,501.0,501.0,501.0,501.0,501.0,508.0,508.0,508.0,510.0,510.0,510.0,510.0,510.0,516.0,516.0,505.0,505.0,507.0,507.0,507.0,502.0,502.0,502.0,502.0,502.0,510.0,510.0,510.0,518.0,518.0,518.0,518.0,518.0,531.0,531.0,504.77777777777777,501.31111111111113,507.02222222222224,523.0,516.0,531.0
0,515.0,521.0,530.0,32.0,27.0,33.0,504.0,499.0,502.0,523.0,504.0,504.0,504.0,504.0,504.0,505.0,505.0,505.0,504.0,504.0,504.0,504.0,504.0,515.0,515.0,515.0,515.0,515.0,515.0,499.0,501.0,501.0,501.0,501.0,501.0,508.0,508.0,508.0,510.0,510.0,510.0,510.0,510.0,516.0,516.0,516.0,516.0,521.0,521.0,507.0,502.0,502.0,502.0,502.0,502.0,510.0,510.0,510.0,518.0,518.0,518.0,518.0,518.0,531.0,531.0,531.0,531.0,530.0,530.0,505.64444444444445,502.6666666666667,508.6666666666667,523.0,521.0,531.0
0,520.0,527.0,517.0,32.0,33.0,33.0,504.0,501.0,502.0,504.0,504.0,504.0,504.0,505.0,505.0,505.0,504.0,504.0,504.0,504.0,504.0,515.0,515.0,515.0,515.0,515.0,515.0,515.0,520.0,501.0,501.0,501.0,501.0,508.0,508.0,508.0,510.0,510.0,510.0,510.0,510.0,516.0,516.0,516.0,516.0,521.0,521.0,521.0,527.0,502.0,502.0,502.0,502.0,510.0,510.0,510.0,518.0,518.0,518.0,518.0,518.0,531.0,531.0,531.0,531.0,530.0,530.0,530.0,517.0,505.8888888888889,503.8222222222222,509.31111111111113,520.0,527.0,531.0
0,508.0,526.0,518.0,32.0,33.0,33.0,504.0,508.0,510.0,505.0,504.0,504.0,504.0,504.0,504.0,515.0,515.0,515.0,515.0,515.0,515.0,515.0,520.0,520.0,520.0,520.0,520.0,508.0,508.0,508.0,510.0,510.0,510.0,510.0,510.0,516.0,516.0,516.0,516.0,521.0,521.0,521.0,527.0,527.0,527.0,527.0,527.0,526.0,526.0,510.0,518.0,518.0,518.0,518.0,518.0,531.0,531.0,531.0,531.0,530.0,530.0,530.0,517.0,517.0,517.0,517.0,517.0,518.0,518.0,507.31111111111113,507.4888888888889,511.02222222222224,520.0,527.0,531.0
0,509.0,519.0,531.0,32.0,33.0,33.0,504.0,510.0,517.0,504.0,504.0,515.0,515.0,515.0,515.0,515.0,515.0,515.0,520.0,520.0,520.0,520.0,520.0,508.0,508.0,508.0,508.0,508.0,509.0,510.0,510.0,516.0,516.0,516.0,516.0,521.0,521.0,521.0,527.0,527.0,527.0,527.0,527.0,526.0,526.0,526.0,526.0,526.0,519.0,518.0,518.0,531.0,531.0,531.0,531.0,530.0,530.0,530.0,517.0,517.0,517.0,517.0,517.0,518.0,518.0,518.0,518.0,518.0,531.0,507.7111111111111,509.68888888888887,513.0888888888888,520.0,527.0,531.0
0,510.0,513.0,545.0,32.0,33.0,44.0,508.0,513.0,517.0,515.0,515.0,515.0,515.0,520.0,520.0,520.0,520.0,520.0,508.0,508.0,508.0,508.0,508.0,509.0,509.0,509.0,509.0,510.0,510.0,516.0,521.0,521.0,521.0,527.0,527.0,527.0,527.0,527.0,526.0,526.0,526.0,526.0,526.0,519.0,519.0,519.0,519.0,513.0,513.0,531.0,530.0,530.0,530.0,517.0,517.0,517.0,517.0,517.0,518.0,518.0,518.0,518.0,518.0,531.0,531.0,531.0,531.0,545.0,545.0,508.9555555555556,512.0,517.2444444444444,520.0,527.0,545.0
0,510.0,509.0,554.0,24.0,33.0,52.0,508.0,509.0,517.0,515.0,520.0,520.0,520.0,520.0,520.0,508.0,508.0,508.0,508.0,508.0,509.0,509.0,509.0,509.0,510.0,510.0,510.0,510.0,510.0,521.0,527.0,527.0,527.0,527.0,527.0,526.0,526.0,526.0,526.0,526.0,519.0,519.0,519.0,519.0,513.0,513.0,513.0,509.0,509.0,530.0,517.0,517.0,517.0,517.0,517.0,518.0,518.0,518.0,518.0,518.0,531.0,531.0,531.0,531.0,545.0,545.0,545.0,554.0,554.0,510.0444444444444,512.9555555555555,520.4888888888889,520.0,527.0,554.0
0,524.0,511.0,554.0,20.0,28.0,52.0,508.0,509.0,517.0,520.0,520.0,508.0,508.0,508.0,508.0,508.0,509.0,509.0,509.0,509.0,510.0,510.0,510.0,510.0,510.0,510.0,510.0,510.0,524.0,527.0,527.0,526.0,526.0,526.0,526.0,526.0,519.0,519.0,519.0,519.0,513.0,513.0,513.0,509.0,509.0,509.0,509.0,509.0,511.0,517.0,517.0,518.0,518.0,518.0,518.0,518.0,531.0,531.0,531.0,531.0,545.0,545.0,545.0,554.0,554.0,554.0,554.0,554.0,554.0,510.8,514.2222222222222,524.8,524.0,527.0,554.0
0,508.0,510.0,543.0,20.0,26.0,52.0,508.0,509.0,518.0,508.0,508.0,509.0,509.0,509.0,509.0,510.0,510.0,510.0,510.0,510.0,510.0,510.0,510.0,524.0,524.0,524.0,524.0,508.0,508.0,526.0,526.0,519.0,519.0,519.0,519.0,513.0,513.0,513.0,509.0,509.0,509.0,509.0,509.0,511.0,511.0,511.0,511.0,510.0,510.0,518.0,518.0,531.0,531.0,531.0,531.0,545.0,545.0,545.0,554.0,554.0,554.0,554.0,554.0,554.0,554.0,554.0,554.0,543.0,543.0,511.46666666666664,515.3777777777777,529.8666666666667,524.0,526.0,554.0
0,508.0,510.0,520.0,20.0,19.0,44.0,508.0,509.0,520.0,509.0,509.0,510.0,510.0,510.0,510.0,510.0,510.0,510.0,510.0,524.0,524.0,524.0,524.0,508.0,508.0,508.0,508.0,508.0,508.0,519.0,519.0,513.0,513.0,513.0,509.0,509.0,509.0,509.0,509.0,511.0,511.0,511.0,511.0,510.0,510.0,510.0,510.0,510.0,510.0,531.0,531.0,545.0,545.0,545.0,554.0,554.0,554.0,554.0,554.0,554.0,554.0,554.0,554.0,543.0,543.0,543.0,543.0,520.0,520.0,511.77777777777777,515.8666666666667,532.1333333333333,524.0,519.0,554.0
0,505.0,506.0,478.0,20.0,21.0,76.0,505.0,506.0,478.0,510.0,510.0,510.0,510.0,510.0,510.0,524.0,524.0,524.0,524.0,508.0,508.0,508.0,508.0,508.0,508.0,508.0,508.0,505.0,505.0,513.0,509.0,509.0,509.0,509.0,509.0,511.0,511.0,511.0,511.0,510.0,510.0,510.0,510.0,510.0,510.0,510.0,510.0,506.0,506.0,545.0,554.0,554.0,554.0,554.0,554.0,554.0,554.0,554.0,554.0,543.0,543.0,543.0,543.0,520.0,520.0,520.0,520.0,478.0,478.0,511.97777777777776,515.7333333333333,530.6222222222223,524.0,513.0,554.0
0,505.0,500.0,405.0,19.0,27.0,149.0,505.0,500.0,405.0,510.0,510.0,524.0,524.0,524.0,524.0,508.0,508.0,508.0,508.0,508.0,508.0,508.0,508.0,505.0,505.0,505.0,505.0,505.0,505.0,509.0,509.0,511.0,511.0,511.0,511.0,510.0,510.0,510.0,510.0,510.0,510.0,510.0,510.0,506.0,506.0,506.0,506.0,500.0,500.0,554.0,554.0,554.0,554.0,554.0,554.0,543.0,543.0,543.0,543.0,520.0,520.0,520.0,520.0,478.0,478.0,478.0,478.0,405.0,405.0,511.5777777777778,514.8444444444444,523.2444444444444,524.0,511.0,554.0
0,493.0,497.0,373.0,31.0,30.0,181.0,493.0,497.0,373.0,524.0,524.0,508.0,508.0,508.0,508.0,508.0,508.0,508.0,508.0,505.0,505.0,505.0,505.0,505.0,505.0,505.0,505.0,493.0,493.0,511.0,511.0,510.0,510.0,510.0,510.0,510.0,510.0,510.0,510.0,506.0,506.0,506.0,506.0,500.0,500.0,500.0,500.0,497.0,497.0,554.0,554.0,543.0,543.0,543.0,543.0,520.0,520.0,520.0,520.0,478.0,478.0,478.0,478.0,405.0,405.0,405.0,405.0,373.0,373.0,510.15555555555557,513.0666666666667,510.6666666666667,524.0,511.0,554.0
0,501.0,499.0,363.0,31.0,30.0,191.0,493.0,497.0,363.0,508.0,508.0,508.0,508.0,508.0,508.0,505.0,505.0,505.0,505.0,505.0,505.0,505.0,505.0,493.0,493.0,493.0,493.0,501.0,501.0,510.0,510.0,510.0,510.0,510.0,510.0,506.0,506.0,506.0,506.0,500.0,500.0,500.0,500.0,497.0,497.0,497.0,497.0,499.0,499.0,543.0,543.0,520.0,520.0,520.0,520.0,478.0,478.0,478.0,478.0,405.0,405.0,405.0,405.0,373.0,373.0,373.0,373.0,363.0,363.0,508.22222222222223,510.6222222222222,497.1333333333333,508.0,510.0,543.0
0,505.0,502.0,376.0,31.0,29.0,191.0,493.0,497.0,363.0,508.0,508.0,508.0,505.0,505.0,505.0,505.0,505.0,505.0,505.0,505.0,493.0,493.0,493.0,493.0,501.0,501.0,501.0,505.0,505.0,510.0,510.0,510.0,506.0,506.0,506.0,506.0,500.0,500.0,500.0,500.0,497.0,497.0,497.0,497.0,499.0,499.0,499.0,502.0,502.0,520.0,520.0,520.0,478.0,478.0,478.0,478.0,405.0,405.0,405.0,405.0,373.0,373.0,373.0,373.0,363.0,363.0,363.0,376.0,376.0,507.4,508.9111111111111,487.4222222222222,508.0,510.0,520.0
0,491.0,501.0,396.0,33.0,22.0,191.0,491.0,497.0,363.0,505.0,505.0,505.0,505.0,505.0,505.0,505.0,493.0,493.0,493.0,493.0,501.0,501.0,501.0,505.0,505.0,505.0,505.0,491.0,491.0,506.0,506.0,506.0,500.0,500.0,500.0,500.0,497.0,497.0,497.0,497.0,499.0,499.0,499.0,502.0,502.0,502.0,502.0,501.0,501.0,478.0,478.0,478.0,405.0,405.0,405.0,405.0,373.0,373.0,373.0,373.0,363.0,363.0,363.0,376.0,376.0,376.0,376.0,396.0,396.0,506.5111111111111,506.73333333333335,475.68888888888887,505.0,506.0,478.0
0,495.0,496.0,411.0,33.0,17.0,191.0,491.0,496.0,363.0,505.0,505.0,505.0,493.0,493.0,493.0,493.0,501.0,501.0,501.0,505.0,505.0,505.0,505.0,491.0,491.0,491.0,491.0,495.0,495.0,500.0,500.0,500.0,497.0,497.0,497.0,497.0,499.0,499.0,499.0,502.0,502.0,502.0,502.0,501.0,501.0,501.0,501.0,496.0,496.0,405.0,405.0,405.0,373.0,373.0,373.0,373.0,363.0,363.0,363.0,376.0,376.0,376.0,376.0,396.0,396.0,396.0,396.0,411.0,411.0,505.0888888888889,504.9111111111111,464.35555555555555,505.0,502.0,411.0
0,513.0,497.0,416.0,33.0,15.0,191.0,491.0,496.0,363.0,493.0,493.0,493.0,501.0,501.0,501.0,505.0,505.0,505.0,505.0,491.0,491.0,491.0,491.0,495.0,495.0,495.0,495.0,513.0,513.0,497.0,497.0,497.0,499.0,499.0,499.0,502.0,502.0,502.0,502.0,501.0,501.0,501.0,501.0,496.0,496.0,496.0,496.0,497.0,497.0,373.0,373.0,373.0,363.0,363.0,363.0,376.0,376.0,376.0,376.0,396.0,396.0,396.0,396.0,411.0,411.0,411.0,411.0,416.0,416.0,504.55555555555554,503.53333333333336,452.46666666666664,513.0,502.0,416.0
0,507.0,501.0,427.0,33.0,15.0,191.0,491.0,496.0,363.0,501.0,501.0,505.0,505.0,505.0,505.0,491.0,491.0,491.0,491.0,495.0,495.0,495.0,495.0,513.0,513.0,513.0,513.0,507.0,507.0,499.0,499.0,502.0,502.0,502.0,502.0,501.0,501.0,501.0,501.0,496.0,496.0,496.0,496.0,497.0,497.0,497.0,497.0,501.0,501.0,363.0,363.0,376.0,376.0,376.0,376.0,396.0,396.0,396.0,396.0,411.0,411.0,411.0,411.0,416.0,416.0,416.0,416.0,427.0,427.0,504.55555555555554,502.64444444444445,440.68888888888887,513.0,502.0,427.0
0,516.0,506.0,435.0,33.0,15.0,191.0,491.0,496.0,376.0,505.0,505.0,505.0,491.0,491.0,491.0,491.0,495.0,495.0,495.0,495.0,513.0,513.0,513.0,513.0,507.0,507.0,507.0,516.0,516.0,502.0,502.0,502.0,501.0,501.0,501.0,501.0,496.0,496.0,496.0,496.0,497.0,497.0,497.0,497.0,501.0,501.0,501.0,506.0,506.0,376.0,376.0,376.0,396.0,396.0,396.0,396.0,411.0,411.0,411.0,411.0,416.0,416.0,416.0,416.0,427.0,427.0,427.0,435.0,435.0,503.8222222222222,502.2,432.5777777777778,516.0,506.0,435.0
0,511.0,501.0,454.0,25.0,14.0,180.0,491.0,496.0,396.0,491.0,491.0,491.0,495.0,495.0,495.0,495.0,513.0,513.0,513.0,513.0,507.0,507.0,507.0,516.0,516.0,516.0,516.0,511.0,511.0,501.0,501.0,501.0,496.0,496.0,496.0,496.0,497.0,497.0,497.0,497.0,501.0,501.0,501.0,506.0,506.0,506.0,506.0,501.0,501.0,396.0,396.0,396.0,411.0,411.0,411.0,411.0,416.0,416.0,416.0,416.0,427.0,427.0,427.0,435.0,435.0,435.0,435.0,454.0,454.0,503.9555555555556,501.6,423.5777777777778,516.0,506.0,454.0
0,511.0,513.0,467.0,25.0,17.0,157.0,495.0,496.0,411.0,495.0,495.0,495.0,513.0,513.0,513.0,513.0,507.0,507.0,507.0,516.0,516.0,516.0,516.0,511.0,511.0,511.0,511.0,511.0,511.0,496.0,496.0,496.0,497.0,497.0,497.0,497.0,501.0,501.0,501.0,506.0,506.0,506.0,506.0,501.0,501.0,501.0,501.0,513.0,513.0,411.0,411.0,411.0,416.0,416.0,416.0,416.0,427.0,427.0,427.0,435.0,435.0,435.0,435.0,454.0,454.0,454.0,454.0,467.0,467.0,504.22222222222223,501.3333333333333,417.77777777777777,516.0,513.0,467.0
0,503.0,515.0,471.0,25.0,19.0,115.0,503.0,497.0,416.0,513.0,513.0,513.0,507.0,507.0,507.0,516.0,516.0,516.0,516.0,511.0,511.0,511.0,511.0,511.0,511.0,511.0,511.0,503.0,503.0,497.0,497.0,497.0,501.0,501.0,501.0,506.0,506.0,506.0,506.0,501.0,501.0,501.0,501.0,513.0,513.0,513.0,513.0,515.0,515.0,416.0,416.0,416.0,427.0,427.0,427.0,435.0,435.0,435.0,435.0,454.0,454.0,454.0,454.0,467.0,467.0,467.0,467.0,471.0,471.0,504.3333333333333,501.9555555555556,416.0444444444444,516.0,515.0,471.0
0,507.0,523.0,500.0,25.0,27.0,137.0,503.0,501.0,427.0,507.0,516.0,516.0,516.0,516.0,511.0,511.0,511.0,511.0,511.0,511.0,511.0,511.0,503.0,503.0,503.0,503.0,503.0,507.0,507.0,501.0,506.0,506.0,506.0,506.0,501.0,501.0,501.0,501.0,513.0,513.0,513.0,513.0,515.0,515.0,515.0,515.0,515.0,523.0,523.0,427.0,435.0,435.0,435.0,435.0,454.0,454.0,454.0,454.0,467.0,467.0,467.0,467.0,471.0,471.0,471.0,471.0,471.0,500.0,500.0,504.2888888888889,503.84444444444443,423.0444444444444,516.0,523.0,500.0
0,510.0,518.0,505.0,25.0,27.0,142.0,503.0,501.0,454.0,511.0,511.0,511.0,511.0,511.0,511.0,511.0,511.0,503.0,503.0,503.0,503.0,503.0,507.0,507.0,507.0,507.0,507.0,510.0,510.0,501.0,501.0,501.0,501.0,513.0,513.0,513.0,513.0,515.0,515.0,515.0,515.0,515.0,523.0,523.0,523.0,523.0,523.0,518.0,518.0,454.0,454.0,454.0,454.0,467.0,467.0,467.0,467.0,471.0,471.0,471.0,471.0,471.0,500.0,500.0,500.0,500.0,500.0,505.0,505.0,505.8,506.46666666666664,437.6,511.0,523.0,505.0
0,510.0,522.0,495.0,25.0,27.0,129.0,503.0,513.0,467.0,511.0,511.0,511.0,511.0,503.0,503.0,503.0,503.0,503.0,507.0,507.0,507.0,507.0,507.0,510.0,510.0,510.0,510.0,510.0,510.0,513.0,513.0,513.0,513.0,515.0,515.0,515.0,515.0,515.0,523.0,523.0,523.0,523.0,523.0,518.0,518.0,518.0,518.0,522.0,522.0,467.0,467.0,467.0,467.0,471.0,471.0,471.0,471.0,471.0,500.0,500.0,500.0,500.0,500.0,505.0,505.0,505.0,505.0,495.0,495.0,506.4222222222222,508.2,449.2,511.0,523.0,505.0
0,513.0,521.0,483.0,25.0,27.0,109.0,503.0,515.0,471.0,503.0,503.0,503.0,503.0,503.0,507.0,507.0,507.0,507.0,507.0,510.0,510.0,510.0,510.0,510.0,510.0,510.0,510.0,513.0,513.0,515.0,515.0,515.0,515.0,515.0,523.0,523.0,523.0,523.0,523.0,518.0,518.0,518.0,518.0,522.0,522.0,522.0,522.0,521.0,521.0,471.0,471.0,471.0,471.0,471.0,500.0,500.0,500.0,500.0,500.0,505.0,505.0,505.0,505.0,495.0,495.0,495.0,495.0,483.0,483.0,507.6222222222222,509.97777777777776,458.35555555555555,513.0,523.0,505.0
0,519.0,519.0,485.0,24.0,27.0,94.0,503.0,515.0,471.0,503.0,507.0,507.0,507.0,507.0,507.0,510.0,510.0,510.0,510.0,510.0,510.0,510.0,510.0,513.0,513.0,513.0,513.0,519.0,519.0,515.0,523.0,523.0,523.0,523.0,523.0,518.0,518.0,518.0,518.0,522.0,522.0,522.0,522.0,521.0,521.0,521.0,521.0,519.0,519.0,471.0,500.0,500.0,500.0,500.0,500.0,505.0,505.0,505.0,505.0,495.0,495.0,495.0,495.0,483.0,483.0,483.0,483.0,485.0,485.0,509.6666666666667,511.8888888888889,465.5111111111111,519.0,523.0,505.0
0,506.0,513.0,483.0,16.0,26.0,89.0,506.0,513.0,483.0,507.0,507.0,510.0,510.0,510.0,510.0,510.0,510.0,510.0,510.0,513.0,513.0,513.0,513.0,519.0,519.0,519.0,519.0,506.0,506.0,523.0,523.0,518.0,518.0,518.0,518.0,522.0,522.0,522.0,522.0,521.0,521.0,521.0,521.0,519.0,519.0,519.0,519.0,513.0,513.0,500.0,500.0,505.0,505.0,505.0,505.0,495.0,495.0,495.0,495.0,483.0,483.0,483.0,483.0,485.0,485.0,485.0,485.0,483.0,483.0,510.4222222222222,513.6222222222223,471.77777777777777,519.0,523.0,505.0
0,504.0,507.0,478.0,16.0,22.0,70.0,504.0,507.0,478.0,510.0,510.0,510.0,510.0,510.0,513.0,513.0,513.0,513.0,519.0,519.0,519.0,519.0,506.0,506.0,506.0,506.0,506.0,504.0,504.0,518.0,522.0,522.0,522.0,522.0,521.0,521.0,521.0,521.0,519.0,519.0,519.0,519.0,513.0,513.0,513.0,513.0,513.0,507.0,507.0,505.0,495.0,495.0,495.0,495.0,483.0,483.0,483.0,483.0,485.0,485.0,485.0,485.0,483.0,483.0,483.0,483.0,483.0,478.0,478.0,509.9555555555556,514.8666666666667,478.26666666666665,519.0,522.0,505.0
0,508.0,505.0,483.0,16.0,22.0,51.0,504.0,505.0,478.0,510.0,513.0,513.0,513.0,513.0,519.0,519.0,519.0,519.0,506.0,506.0,506.0,506.0,506.0,504.0,504.0,504.0,504.0,508.0,508.0,522.0,521.0,521.0,521.0,521.0,519.0,519.0,519.0,519.0,513.0,513.0,513.0,513.0,513.0,507.0,507.0,507.0,507.0,505.0,505.0,495.0,483.0,483.0,483.0,483.0,485.0,485.0,485.0,485.0,483.0,483.0,483.0,483.0,483.0,478.0,478.0,478.0,478.0,483.0,483.0,509.06666666666666,514.8666666666667,482.31111111111113,519.0,522.0,495.0
0,509.0,505.0,490.0,16.0,18.0,38.0,504.0,505.0,478.0,513.0,519.0,519.0,519.0,519.0,506.0,506.0,506.0,506.0,506.0,504.0,504.0,504.0,504.0,508.0,508.0,508.0,508.0,509.0,509.0,521.0,519.0,519.0,519.0,519.0,513.0,513.0,513.0,513.0,513.0,507.0,507.0,507.0,507.0,505.0,505.0,505.0,505.0,505.0,505.0,483.0,485.0,485.0,485.0,485.0,483.0,483.0,483.0,483.0,483.0,478.0,478.0,478.0,478.0,483.0,483.0,483.0,483.0,490.0,490.0,508.84444444444443,515.2222222222222,485.2,519.0,521.0,490.0
0,505.0,504.0,501.0,16.0,19.0,34.0,504.0,504.0,478.0,519.0,506.0,506.0,506.0,506.0,506.0,504.0,504.0,504.0,504.0,508.0,508.0,508.0,508.0,509.0,509.0,509.0,509.0,509.0,505.0,519.0,513.0,513.0,513.0,513.0,513.0,507.0,507.0,507.0,507.0,505.0,505.0,505.0,505.0,505.0,505.0,505.0,505.0,505.0,504.0,485.0,483.0,483.0,483.0,483.0,483.0,478.0,478.0,478.0,478.0,483.0,483.0,483.0,483.0,490.0,490.0,490.0,490.0,490.0,501.0,508.5777777777778,514.4888888888889,487.4888888888889,519.0,519.0,501.0
0,496.0,504.0,531.0,23.0,19.0,53.0,496.0,504.0,478.0,506.0,504.0,504.0,504.0,504.0,508.0,508.0,508.0,508.0,509.0,509.0,509.0,509.0,509.0,505.0,505.0,505.0,505.0,496.0,496.0,513.0,507.0,507.0,507.0,507.0,505.0,505.0,505.0,505.0,505.0,505.0,505.0,505.0,505.0,504.0,504.0,504.0,504.0,504.0,504.0,483.0,478.0,478.0,478.0,478.0,483.0,483.0,483.0,483.0,490.0,490.0,490.0,490.0,490.0,501.0,501.0,501.0,501.0,531.0,531.0,508.4,513.2666666666667,492.15555555555557,509.0,513.0,531.0
0,494.0,503.0,542.0,25.0,20.0,64.0,494.0,503.0,478.0,504.0,508.0,508.0,508.0,508.0,509.0,509.0,509.0,509.0,509.0,505.0,505.0,505.0,505.0,496.0,496.0,496.0,496.0,494.0,494.0,507.0,505.0,505.0,505.0,505.0,505.0,505.0,505.0,505.0,505.0,504.0,504.0,504.0,504.0,504.0,504.0,504.0,504.0,503.0,503.0,478.0,483.0,483.0,483.0,483.0,490.0,490.0,490.0,490.0,490.0,501.0,501.0,501.0,501.0,531.0,531.0,531.0,531.0,542.0,542.0,507.3333333333333,511.53333333333336,495.4,509.0,507.0,542.0
0,498.0,502.0,557.0,25.0,20.0,79.0,494.0,502.0,483.0,508.0,508.0,509.0,509.0,509.0,509.0,509.0,505.0,505.0,505.0,505.0,496.0,496.0,496.0,496.0,494.0,494.0,494.0,498.0,498.0,505.0,505.0,505.0,505.0,505.0,505.0,505.0,504.0,504.0,504.0,504.0,504.0,504.0,504.0,504.0,503.0,503.0,503.0,502.0,502.0,483.0,483.0,490.0,490.0,490.0,490.0,490.0,501.0,501.0,501.0,501.0,531.0,531.0,531.0,531.0,542.0,542.0,542.0,557.0,557.0,506.5111111111111,510.3777777777778,498.64444444444445,509.0,505.0,557.0
0,506.0,503.0,570.0,25.0,20.0,92.0,494.0,502.0,490.0,509.0,509.0,509.0,505.0,505.0,505.0,505.0,496.0,496.0,496.0,496.0,494.0,494.0,494.0,498.0,498.0,498.0,498.0,506.0,506.0,505.0,505.0,505.0,504.0,504.0,504.0,504.0,504.0,504.0,504.0,504.0,503.0,503.0,503.0,502.0,502.0,502.0,502.0,503.0,503.0,490.0,490.0,490.0,501.0,501.0,501.0,501.0,531.0,531.0,531.0,531.0,542.0,542.0,542.0,557.0,557.0,557.0,557.0,570.0,570.0,505.8,508.8222222222222,504.2888888888889,509.0,505.0,570.0
0,495.0,497.0,598.0,25.0,24.0,120.0,494.0,497.0,501.0,505.0,505.0,505.0,505.0,496.0,496.0,496.0,496.0,494.0,494.0,494.0,498.0,498.0,498.0,498.0,506.0,506.0,506.0,495.0,495.0,504.0,504.0,504.0,504.0,504.0,504.0,504.0,504.0,503.0,503.0,503.0,502.0,502.0,502.0,502.0,503.0,503.0,503.0,497.0,497.0,501.0,501.0,501.0,501.0,531.0,531.0,531.0,531.0,542.0,542.0,542.0,557.0,557.0,557.0,557.0,570.0,570.0,570.0,598.0,598.0,504.97777777777776,507.31111111111113,510.8,506.0,504.0,598.0
0,503.0,494.0,568.0,25.0,25.0,120.0,494.0,494.0,531.0,496.0,496.0,496.0,494.0,494.0,494.0,498.0,498.0,498.0,498.0,506.0,506.0,506.0,495.0,495.0,495.0,495.0,495.0,503.0,503.0,504.0,504.0,504.0,503.0,503.0,503.0,502.0,502.0,502.0,502.0,503.0,503.0,503.0,497.0,497.0,497.0,497.0,497.0,494.0,494.0,531.0,531.0,531.0,542.0,542.0,542.0,557.0,557.0,557.0,557.0,570.0,570.0,570.0,598.0,598.0,598.0,598.0,598.0,568.0,568.0,503.06666666666666,504.6,522.1555555555556,506.0,504.0,598.0
0,503.0,494.0,512.0,15.0,19.0,120.0,494.0,494.0,512.0,494.0,498.0,498.0,498.0,498.0,506.0,506.0,506.0,495.0,495.0,495.0,495.0,495.0,503.0,503.0,503.0,503.0,503.0,503.0,503.0,503.0,502.0,502.0,502.0,502.0,503.0,503.0,503.0,497.0,497.0,497.0,497.0,497.0,494.0,494.0,494.0,494.0,494.0,494.0,494.0,542.0,557.0,557.0,557.0,557.0,570.0,570.0,570.0,598.0,598.0,598.0,598.0,598.0,568.0,568.0,568.0,568.0,512.0,512.0,512.0,502.15555555555557,502.22222222222223,527.7777777777778,506.0,503.0,598.0
0,521.0,495.0,448.0,27.0,13.0,150.0,495.0,494.0,448.0,498.0,506.0,506.0,506.0,495.0,495.0,495.0,495.0,495.0,503.0,503.0,503.0,503.0,503.0,503.0,503.0,503.0,503.0,521.0,521.0,502.0,503.0,503.0,503.0,497.0,497.0,497.0,497.0,497.0,494.0,494.0,494.0,494.0,494.0,494.0,494.0,494.0,494.0,495.0,495.0,557.0,570.0,570.0,570.0,598.0,598.0,598.0,598.0,598.0,568.0,568.0,568.0,568.0,512.0,512.0,512.0,512.0,512.0,448.0,448.0,502.77777777777777,500.84444444444443,527.7333333333333,521.0,503.0,598.0
0,505.0,496.0,399.0,27.0,11.0,199.0,495.0,494.0,399.0,495.0,495.0,495.0,495.0,495.0,503.0,503.0,503.0,503.0,503.0,503.0,503.0,503.0,503.0,521.0,521.0,521.0,521.0,505.0,505.0,497.0,497.0,497.0,497.0,497.0,494.0,494.0,494.0,494.0,494.0,494.0,494.0,494.0,494.0,495.0,495.0,495.0,495.0,496.0,496.0,598.0,598.0,598.0,598.0,598.0,568.0,568.0,568.0,568.0,512.0,512.0,512.0,512.0,512.0,448.0,448.0,448.0,448.0,399.0,399.0,503.4,499.9111111111111,522.6666666666666,521.0,497.0,598.0
0,511.0,496.0,385.0,27.0,11.0,213.0,495.0,494.0,385.0,495.0,503.0,503.0,503.0,503.0,503.0,503.0,503.0,503.0,503.0,521.0,521.0,521.0,521.0,505.0,505.0,505.0,505.0,511.0,511.0,497.0,494.0,494.0,494.0,494.0,494.0,494.0,494.0,494.0,494.0,495.0,495.0,495.0,495.0,496.0,496.0,496.0,496.0,496.0,496.0,598.0,568.0,568.0,568.0,568.0,512.0,512.0,512.0,512.0,512.0,448.0,448.0,448.0,448.0,399.0,399.0,399.0,399.0,385.0,385.0,503.35555555555555,499.1111111111111,514.2666666666667,521.0,497.0,598.0
0,505.0,509.0,413.0,27.0,15.0,213.0,503.0,494.0,385.0,503.0,503.0,503.0,503.0,503.0,503.0,521.0,521.0,521.0,521.0,505.0,505.0,505.0,505.0,511.0,511.0,511.0,511.0,505.0,505.0,494.0,494.0,494.0,494.0,494.0,494.0,495.0,495.0,495.0,495.0,496.0,496.0,496.0,496.0,496.0,496.0,496.0,496.0,509.0,509.0,568.0,512.0,512.0,512.0,512.0,512.0,448.0,448.0,448.0,448.0,399.0,399.0,399.0,399.0,385.0,385.0,385.0,385.0,413.0,413.0,503.35555555555555,498.9111111111111,505.93333333333334,521.0,509.0,568.0
0,503.0,516.0,478.0,27.0,22.0,213.0,503.0,494.0,385.0,503.0,503.0,521.0,521.0,521.0,521.0,505.0,505.0,505.0,505.0,511.0,511.0,511.0,511.0,505.0,505.0,505.0,505.0,503.0,503.0,494.0,494.0,495.0,495.0,495.0,495.0,496.0,496.0,496.0,496.0,496.0,496.0,496.0,496.0,509.0,509.0,509.0,509.0,516.0,516.0,512.0,512.0,448.0,448.0,448.0,448.0,399.0,399.0,399.0,399.0,385.0,385.0,385.0,385.0,413.0,413.0,413.0,413.0,478.0,478.0,503.46666666666664,499.6666666666667,500.3333333333333,521.0,516.0,512.0
0,503.0,516.0,478.0,27.0,22.0,213.0,503.0,495.0,385.0,521.0,521.0,521.0,505.0,505.0,505.0,505.0,511.0,511.0,511.0,511.0,505.0,505.0,505.0,505.0,503.0,503.0,503.0,503.0,503.0,495.0,495.0,495.0,496.0,496.0,496.0,496.0,496.0,496.0,496.0,496.0,509.0,509.0,509.0,509.0,516.0,516.0,516.0,516.0,516.0,448.0,448.0,448.0,399.0,399.0,399.0,399.0,385.0,385.0,385.0,385.0,413.0,413.0,413.0,413.0,478.0,478.0,478.0,478.0,478.0,503.93333333333334,500.46666666666664,496.8,521.0,516.0,478.0
0,525.0,521.0,597.0,30.0,27.0,213.0,503.0,496.0,385.0,505.0,505.0,505.0,511.0,511.0,511.0,511.0,505.0,505.0,505.0,505.0,503.0,503.0,503.0,503.0,503.0,510.0,510.0,525.0,525.0,496.0,496.0,496.0,496.0,496.0,496.0,496.0,509.0,509.0,509.0,509.0,516.0,516.0,516.0,516.0,516.0,519.0,519.0,521.0,521.0,399.0,399.0,399.0,385.0,385.0,385.0,385.0,413.0,413.0,413.0,413.0,478.0,478.0,478.0,478.0,478.0,549.0,549.0,597.0,597.0,505.93333333333334,502.0,499.22222222222223,525.0,521.0,597.0
0,510.0,522.0,669.0,30.0,28.0,284.0,503.0,496.0,385.0,511.0,511.0,511.0,511.0,505.0,505.0,505.0,505.0,503.0,503.0,503.0,503.0,503.0,510.0,510.0,525.0,525.0,525.0,510.0,510.0,496.0,496.0,496.0,496.0,509.0,509.0,509.0,509.0,516.0,516.0,516.0,516.0,516.0,519.0,519.0,521.0,521.0,521.0,522.0,522.0,385.0,385.0,385.0,385.0,413.0,413.0,413.0,413.0,478.0,478.0,478.0,478.0,478.0,549.0,549.0,597.0,597.0,597.0,669.0,669.0,507.06666666666666,503.31111111111113,505.0888888888889,525.0,522.0,669.0
0,509.0,519.0,708.0,30.0,28.0,323.0,503.0,496.0,385.0,511.0,505.0,505.0,505.0,505.0,503.0,503.0,503.0,503.0,503.0,510.0,510.0,525.0,525.0,525.0,510.0,510.0,510.0,509.0,509.0,496.0,509.0,509.0,509.0,509.0,516.0,516.0,516.0,516.0,516.0,519.0,519.0,521.0,521.0,521.0,522.0,522.0,522.0,519.0,519.0,385.0,413.0,413.0,413.0,413.0,478.0,478.0,478.0,478.0,478.0,549.0,549.0,597.0,597.0,597.0,669.0,669.0,669.0,708.0,708.0,507.2888888888889,504.44444444444446,513.4222222222222,525.0,522.0,708.0
0,513.0,517.0,654.0,30.0,28.0,323.0,503.0,509.0,413.0,505.0,503.0,503.0,503.0,503.0,503.0,510.0,510.0,525.0,525.0,525.0,510.0,510.0,510.0,509.0,509.0,509.0,509.0,513.0,513.0,509.0,516.0,516.0,516.0,516.0,516.0,519.0,519.0,521.0,521.0,521.0,522.0,522.0,522.0,519.0,519.0,519.0,519.0,517.0,517.0,413.0,478.0,478.0,478.0,478.0,478.0,549.0,549.0,597.0,597.0,597.0,669.0,669.0,669.0,708.0,708.0,708.0,708.0,654.0,654.0,508.7111111111111,506.31111111111113,520.8,525.0,522.0,708.0
0,510.0,514.0,612.0,22.0,28.0,323.0,503.0,514.0,478.0,503.0,503.0,510.0,510.0,525.0,525.0,525.0,510.0,510.0,510.0,509.0,509.0,509.0,509.0,513.0,513.0,513.0,513.0,510.0,510.0,516.0,516.0,519.0,519.0,521.0,521.0,521.0,522.0,522.0,522.0,519.0,519.0,519.0,519.0,517.0,517.0,517.0,517.0,514.0,514.0,478.0,478.0,549.0,549.0,597.0,597.0,597.0,669.0,669.0,669.0,708.0,708.0,708.0,708.0,654.0,654.0,654.0,654.0,612.0,612.0,509.64444444444445,508.15555555555557,525.9111111111112,525.0,522.0,708.0
0,520.0,512.0,583.0,22.0,28.0,323.0,509.0,512.0,583.0,525.0,525.0,525.0,510.0,510.0,510.0,509.0,509.0,509.0,509.0,513.0,513.0,513.0,513.0,510.0,510.0,510.0,510.0,520.0,520.0,521.0,521.0,521.0,522.0,522.0,522.0,519.0,519.0,519.0,519.0,517.0,517.0,517.0,517.0,514.0,514.0,514.0,514.0,512.0,512.0,597.0,597.0,597.0,669.0,669.0,669.0,708.0,708.0,708.0,708.0,654.0,654.0,654.0,654.0,612.0,612.0,612.0,612.0,583.0,583.0,510.7111111111111,509.84444444444443,532.2666666666667,525.0,522.0,708.0
0,513.0,514.0,542.0,22.0,27.0,323.0,509.0,512.0,542.0,510.0,510.0,510.0,509.0,509.0,509.0,509.0,513.0,513.0,513.0,513.0,510.0,510.0,510.0,510.0,520.0,520.0,520.0,513.0,513.0,522.0,522.0,522.0,519.0,519.0,519.0,519.0,517.0,517.0,517.0,517.0,514.0,514.0,514.0,514.0,512.0,512.0,512.0,514.0,514.0,669.0,669.0,669.0,708.0,708.0,708.0,708.0,654.0,654.0,654.0,654.0,612.0,612.0,612.0,612.0,583.0,583.0,583.0,542.0,542.0,511.1333333333333,511.1111111111111,536.6,520.0,522.0,708.0
0,499.0,510.0,470.0,26.0,26.0,323.0,499.0,510.0,470.0,509.0,509.0,509.0,513.0,513.0,513.0,513.0,510.0,510.0,510.0,510.0,520.0,520.0,520.0,513.0,513.0,513.0,513.0,499.0,499.0,519.0,519.0,519.0,517.0,517.0,517.0,517.0,514.0,514.0,514.0,514.0,512.0,512.0,512.0,514.0,514.0,514.0,514.0,510.0,510.0,708.0,708.0,708.0,654.0,654.0,654.0,654.0,612.0,612.0,612.0,612.0,583.0,583.0,583.0,542.0,542.0,542.0,542.0,470.0,470.0,510.15555555555557,512.6,542.8444444444444,520.0,519.0,708.0
0,507.0,511.0,441.0,26.0,26.0,323.0,499.0,510.0,441.0,513.0,513.0,513.0,510.0,510.0,510.0,510.0,520.0,520.0,520.0,513.0,513.0,513.0,513.0,499.0,499.0,499.0,499.0,507.0,507.0,517.0,517.0,517.0,514.0,514.0,514.0,514.0,512.0,512.0,512.0,514.0,514.0,514.0,514.0,510.0,510.0,510.0,510.0,511.0,511.0,654.0,654.0,654.0,612.0,612.0,612.0,612.0,583.0,583.0,583.0,542.0,542.0,542.0,542.0,470.0,470.0,470.0,470.0,441.0,441.0,509.84444444444443,513.8888888888889,548.1777777777778,520.0,517.0,654.0
0,513.0,503.0,468.0,26.0,19.0,295.0,499.0,503.0,441.0,510.0,510.0,510.0,520.0,520.0,520.0,513.0,513.0,513.0,513.0,499.0,499.0,499.0,499.0,507.0,507.0,507.0,507.0,513.0,513.0,514.0,514.0,514.0,512.0,512.0,512.0,514.0,514.0,514.0,514.0,510.0,510.0,510.0,510.0,511.0,511.0,511.0,511.0,503.0,503.0,612.0,612.0,612.0,583.0,583.0,583.0,542.0,542.0,542.0,542.0,470.0,470.0,470.0,470.0,441.0,441.0,441.0,441.0,468.0,468.0,509.8888888888889,514.5777777777778,553.7333333333333,520.0,514.0,612.0
0,497.0,503.0,504.0,28.0,19.0,267.0,497.0,503.0,441.0,520.0,520.0,513.0,513.0,513.0,513.0,499.0,499.0,499.0,499.0,507.0,507.0,507.0,507.0,513.0,513.0,513.0,513.0,497.0,497.0,512.0,512.0,514.0,514.0,514.0,514.0,510.0,510.0,510.0,510.0,511.0,511.0,511.0,511.0,503.0,503.0,503.0,503.0,503.0,503.0,583.0,583.0,542.0,542.0,542.0,542.0,470.0,470.0,470.0,470.0,441.0,441.0,441.0,441.0,468.0,468.0,468.0,468.0,504.0,504.0,509.93333333333334,513.8888888888889,558.7777777777778,520.0,514.0,583.0
0,501.0,504.0,523.0,28.0,19.0,267.0,497.0,503.0,441.0,513.0,513.0,499.0,499.0,499.0,499.0,507.0,507.0,507.0,507.0,513.0,513.0,513.0,513.0,497.0,497.0,497.0,497.0,501.0,501.0,514.0,514.0,510.0,510.0,510.0,510.0,511.0,511.0,511.0,511.0,503.0,503.0,503.0,503.0,503.0,503.0,503.0,503.0,504.0,504.0,542.0,542.0,470.0,470.0,470.0,470.0,441.0,441.0,441.0,441.0,468.0,468.0,468.0,468.0,504.0,504.0,504.0,504.0,523.0,523.0,509.6222222222222,513.0444444444445,560.9333333333333,513.0,514.0,542.0
0,507.0,503.0,535.0,28.0,19.0,267.0,497.0,503.0,441.0,499.0,499.0,499.0,507.0,507.0,507.0,507.0,513.0,513.0,513.0,513.0,497.0,497.0,497.0,497.0,501.0,501.0,501.0,507.0,507.0,510.0,510.0,510.0,511.0,511.0,511.0,511.0,503.0,503.0,503.0,503.0,503.0,503.0,503.0,503.0,504.0,504.0,504.0,503.0,503.0,470.0,470.0,470.0,441.0,441.0,441.0,441.0,468.0,468.0,468.0,468.0,504.0,504.0,504.0,504.0,523.0,523.0,523.0,535.0,535.0,508.9111111111111,511.68888888888887,559.6666666666666,513.0,511.0,535.0
0,499.0,499.0,549.0,23.0,20.0,267.0,497.0,499.0,441.0,507.0,507.0,513.0,513.0,513.0,513.0,497.0,497.0,497.0,497.0,501.0,501.0,501.0,507.0,507.0,507.0,507.0,507.0,499.0,499.0,511.0,511.0,503.0,503.0,503.0,503.0,503.0,503.0,503.0,503.0,504.0,504.0,504.0,503.0,503.0,503.0,503.0,503.0,499.0,499.0,441.0,441.0,468.0,468.0,468.0,468.0,504.0,504.0,504.0,504.0,523.0,523.0,523.0,535.0,535.0,535.0,535.0,535.0,549.0,549.0,507.55555555555554,509.44444444444446,548.6,513.0,511.0,549.0
0,504.0,494.0,566.0,23.0,23.0,213.0,497.0,494.0,468.0,513.0,513.0,497.0,497.0,497.0,497.0,501.0,501.0,501.0,507.0,507.0,507.0,507.0,507.0,499.0,499.0,499.0,499.0,504.0,504.0,503.0,503.0,503.0,503.0,503.0,503.0,504.0,504.0,504.0,503.0,503.0,503.0,503.0,503.0,499.0,499.0,499.0,499.0,494.0,494.0,468.0,468.0,504.0,504.0,504.0,504.0,523.0,523.0,523.0,535.0,535.0,535.0,535.0,535.0,549.0,549.0,549.0,549.0,566.0,566.0,506.8888888888889,507.44444444444446,535.2222222222222,513.0,504.0,566.0
0,511.0,492.0,571.0,23.0,22.0,171.0,497.0,492.0,504.0,497.0,497.0,501.0,501.0,501.0,507.0,507.0,507.0,507.0,507.0,499.0,499.0,499.0,499.0,504.0,504.0,504.0,504.0,511.0,511.0,503.0,503.0,504.0,504.0,504.0,503.0,503.0,503.0,503.0,503.0,499.0,499.0,499.0,499.0,494.0,494.0,494.0,494.0,492.0,492.0,504.0,504.0,523.0,523.0,523.0,535.0,535.0,535.0,535.0,535.0,549.0,549.0,549.0,549.0,566.0,566.0,566.0,566.0,571.0,571.0,506.4,505.31111111111113,527.6222222222223,511.0,504.0,571.0
0,495.0,495.0,563.0,25.0,22.0,142.0,495.0,492.0,523.0,501.0,507.0,507.0,507.0,507.0,507.0,499.0,499.0,499.0,499.0,504.0,504.0,504.0,504.0,511.0,511.0,511.0,511.0,495.0,495.0,504.0,503.0,503.0,503.0,503.0,503.0,499.0,499.0,499.0,499.0,494.0,494.0,494.0,494.0,492.0,492.0,492.0,492.0,495.0,495.0,523.0,535.0,535.0,535.0,535.0,535.0,549.0,549.0,549.0,549.0,566.0,566.0,566.0,566.0,571.0,571.0,571.0,571.0,563.0,563.0,505.77777777777777,503.4888888888889,523.6222222222223,511.0,504.0,571.0
0,508.0,495.0,550.0,18.0,22.0,130.0,495.0,492.0,535.0,507.0,507.0,507.0,499.0,499.0,499.0,499.0,504.0,504.0,504.0,504.0,511.0,511.0,511.0,511.0,495.0,495.0,495.0,508.0,508.0,503.0,503.0,503.0,499.0,499.0,499.0,499.0,494.0,494.0,494.0,494.0,492.0,492.0,492.0,492.0,495.0,495.0,495.0,495.0,495.0,535.0,535.0,535.0,549.0,549.0,549.0,549.0,566.0,566.0,566.0,566.0,571.0,571.0,571.0,571.0,563.0,563.0,563.0,550.0,550.0,504.68888888888887,502.35555555555555,521.7111111111111,511.0,503.0,571.0
0,519.0,497.0,533.0,24.0,19.0,130.0,495.0,492.0,533.0,499.0,499.0,499.0,504.0,504.0,504.0,504.0,511.0,511.0,511.0,511.0,495.0,495.0,495.0,508.0,508.0,508.0,508.0,519.0,519.0,499.0,499.0,499.0,494.0,494.0,494.0,494.0,492.0,492.0,492.0,492.0,495.0,495.0,495.0,495.0,495.0,495.0,495.0,497.0,497.0,549.0,549.0,549.0,566.0,566.0,566.0,566.0,571.0,571.0,571.0,571.0,563.0,563.0,563.0,550.0,550.0,550.0,550.0,533.0,533.0,504.73333333333335,500.75555555555553,521.6666666666666,519.0,499.0,571.0
0,518.0,508.0,500.0,24.0,19.0,130.0,495.0,492.0,500.0,504.0,504.0,511.0,511.0,511.0,511.0,495.0,495.0,495.0,508.0,508.0,508.0,508.0,519.0,519.0,519.0,519.0,519.0,518.0,518.0,494.0,494.0,492.0,492.0,492.0,492.0,495.0,495.0,495.0,495.0,495.0,495.0,495.0,497.0,497.0,497.0,497.0,497.0,508.0,508.0,566.0,566.0,571.0,571.0,571.0,571.0,563.0,563.0,563.0,550.0,550.0,550.0,550.0,533.0,533.0,533.0,533.0,533.0,500.0,500.0,506.73333333333335,499.77777777777777,527.8444444444444,519.0,508.0,571.0
0,498.0,522.0,481.0,24.0,30.0,103.0,495.0,492.0,481.0,511.0,511.0,511.0,495.0,495.0,495.0,508.0,508.0,508.0,508.0,519.0,519.0,519.0,519.0,519.0,518.0,518.0,518.0,518.0,498.0,492.0,492.0,492.0,495.0,495.0,495.0,495.0,495.0,495.0,495.0,497.0,497.0,497.0,497.0,497.0,508.0,508.0,508.0,508.0,522.0,571.0,571.0,571.0,563.0,563.0,563.0,550.0,550.0,550.0,550.0,533.0,533.0,533.0,533.0,533.0,500.0,500.0,500.0,500.0,481.0,507.02222222222224,499.8888888888889,531.3555555555556,519.0,522.0,571.0
0,505.0,522.0,476.0,24.0,30.0,95.0,495.0,495.0,476.0,495.0,495.0,508.0,508.0,508.0,508.0,519.0,519.0,519.0,519.0,519.0,518.0,518.0,518.0,518.0,498.0,498.0,498.0,505.0,505.0,495.0,495.0,495.0,495.0,495.0,495.0,497.0,497.0,497.0,497.0,497.0,508.0,508.0,508.0,508.0,522.0,522.0,522.0,522.0,522.0,563.0,563.0,550.0,550.0,550.0,550.0,533.0,533.0,533.0,533.0,533.0,500.0,500.0,500.0,500.0,481.0,481.0,481.0,476.0,476.0,506.0,501.5777777777778,532.2888888888889,519.0,522.0,563.0
0,508.0,523.0,491.0,24.0,31.0,95.0,498.0,495.0,476.0,508.0,508.0,519.0,519.0,519.0,519.0,519.0,518.0,518.0,518.0,518.0,498.0,498.0,498.0,505.0,505.0,505.0,505.0,508.0,508.0,495.0,495.0,497.0,497.0,497.0,497.0,497.0,508.0,508.0,508.0,508.0,522.0,522.0,522.0,522.0,522.0,522.0,522.0,523.0,523.0,550.0,550.0,533.0,533.0,533.0,533.0,533.0,500.0,500.0,500.0,500.0,481.0,481.0,481.0,476.0,476.0,476.0,476.0,491.0,491.0,506.84444444444443,503.31111111111113,530.4666666666667,519.0,523.0,550.0
0,517.0,526.0,503.0,24.0,34.0,95.0,498.0,497.0,476.0,519.0,519.0,519.0,519.0,518.0,518.0,518.0,518.0,498.0,498.0,498.0,505.0,505.0,505.0,505.0,508.0,508.0,508.0,517.0,517.0,497.0,497.0,497.0,497.0,508.0,508.0,508.0,508.0,522.0,522.0,522.0,522.0,522.0,522.0,522.0,523.0,523.0,523.0,526.0,526.0,533.0,533.0,533.0,533.0,500.0,500.0,500.0,500.0,481.0,481.0,481.0,476.0,476.0,476.0,476.0,491.0,491.0,491.0,503.0,503.0,507.7111111111111,504.7111111111111,528.8666666666667,519.0,526.0,533.0
0,517.0,529.0,503.0,24.0,37.0,95.0,498.0,508.0,476.0,518.0,518.0,518.0,518.0,498.0,498.0,498.0,505.0,505.0,505.0,505.0,508.0,508.0,508.0,517.0,517.0,517.0,517.0,517.0,517.0,508.0,508.0,508.0,508.0,522.0,522.0,522.0,522.0,522.0,522.0,522.0,523.0,523.0,523.0,526.0,526.0,526.0,526.0,529.0,529.0,500.0,500.0,500.0,500.0,481.0,481.0,481.0,476.0,476.0,476.0,476.0,491.0,491.0,491.0,503.0,503.0,503.0,503.0,503.0,503.0,508.6,506.8888888888889,526.0222222222222,518.0,529.0,503.0
0,529.0,526.0,502.0,34.0,37.0,95.0,498.0,522.0,476.0,498.0,498.0,498.0,505.0,505.0,505.0,505.0,508.0,508.0,508.0,517.0,517.0,517.0,517.0,517.0,517.0,517.0,517.0,529.0,529.0,522.0,522.0,522.0,522.0,522.0,522.0,522.0,523.0,523.0,523.0,526.0,526.0,526.0,526.0,529.0,529.0,529.0,529.0,526.0,526.0,481.0,481.0,481.0,476.0,476.0,476.0,476.0,491.0,491.0,491.0,503.0,503.0,503.0,503.0,503.0,503.0,503.0,503.0,502.0,502.0,510.55555555555554,509.3333333333333,522.2,529.0,529.0,503.0
0,517.0,514.0,504.0,34.0,37.0,95.0,505.0,514.0,476.0,505.0,505.0,505.0,508.0,508.0,508.0,517.0,517.0,517.0,517.0,517.0,517.0,517.0,517.0,529.0,529.0,529.0,529.0,517.0,517.0,522.0,522.0,522.0,523.0,523.0,523.0,526.0,526.0,526.0,526.0,529.0,529.0,529.0,529.0,526.0,526.0,526.0,526.0,514.0,514.0,476.0,476.0,476.0,491.0,491.0,491.0,503.0,503.0,503.0,503.0,503.0,503.0,503.0,503.0,502.0,502.0,502.0,502.0,504.0,504.0,512.3555555555556,511.53333333333336,516.9777777777778,529.0,529.0,504.0
0,505.0,506.0,509.0,34.0,37.0,95.0,505.0,506.0,491.0,508.0,508.0,517.0,517.0,517.0,517.0,517.0,517.0,517.0,517.0,529.0,529.0,529.0,529.0,517.0,517.0,517.0,517.0,505.0,505.0,523.0,523.0,526.0,526.0,526.0,526.0,529.0,529.0,529.0,529.0,526.0,526.0,526.0,526.0,514.0,514.0,514.0,514.0,506.0,506.0,491.0,491.0,503.0,503.0,503.0,503.0,503.0,503.0,503.0,503.0,502.0,502.0,502.0,502.0,504.0,504.0,504.0,504.0,509.0,509.0,512.5111111111111,513.0888888888888,511.35555555555555,529.0,529.0,509.0
0,510.0,498.0,497.0,31.0,34.0,74.0,505.0,498.0,497.0,517.0,517.0,517.0,517.0,517.0,517.0,529.0,529.0,529.0,529.0,517.0,517.0,517.0,517.0,505.0,505.0,505.0,505.0,510.0,510.0,526.0,526.0,529.0,529.0,529.0,529.0,526.0,526.0,526.0,526.0,514.0,514.0,514.0,514.0,506.0,506.0,506.0,506.0,498.0,498.0,503.0,503.0,503.0,503.0,503.0,503.0,502.0,502.0,502.0,502.0,504.0,504.0,504.0,504.0,509.0,509.0,509.0,509.0,497.0,497.0,513.2666666666667,513.7777777777778,505.84444444444443,529.0,529.0,509.0
0,510.0,496.0,483.0,31.0,33.0,57.0,505.0,496.0,483.0,517.0,517.0,529.0,529.0,529.0,529.0,517.0,517.0,517.0,517.0,505.0,505.0,505.0,505.0,510.0,510.0,510.0,510.0,510.0,510.0,529.0,529.0,526.0,526.0,526.0,526.0,514.0,514.0,514.0,514.0,506.0,506.0,506.0,506.0,498.0,498.0,498.0,498.0,496.0,496.0,503.0,503.0,502.0,502.0,502.0,502.0,504.0,504.0,504.0,504.0,509.0,509.0,509.0,509.0,497.0,497.0,497.0,497.0,483.0,483.0,513.4444444444445,513.9555555555555,500.5111111111111,529.0,529.0,509.0
0,509.0,499.0,457.0,31.0,33.0,76.0,505.0,496.0,457.0,529.0,529.0,517.0,517.0,517.0,517.0,505.0,505.0,505.0,505.0,510.0,510.0,510.0,510.0,510.0,510.0,510.0,510.0,509.0,509.0,526.0,526.0,514.0,514.0,514.0,514.0,506.0,506.0,506.0,506.0,498.0,498.0,498.0,498.0,496.0,496.0,496.0,496.0,499.0,499.0,502.0,502.0,504.0,504.0,504.0,504.0,509.0,509.0,509.0,509.0,497.0,497.0,497.0,497.0,483.0,483.0,483.0,483.0,457.0,457.0,512.6,514.0,494.9111111111111,529.0,526.0,509.0
0,513.0,505.0,434.0,31.0,33.0,75.0,505.0,496.0,434.0,517.0,517.0,505.0,505.0,505.0,505.0,510.0,510.0,510.0,510.0,510.0,510.0,510.0,510.0,509.0,509.0,509.0,509.0,513.0,513.0,514.0,514.0,506.0,506.0,506.0,506.0,498.0,498.0,498.0,498.0,496.0,496.0,496.0,496.0,499.0,499.0,499.0,499.0,505.0,505.0,504.0,504.0,509.0,509.0,509.0,509.0,497.0,497.0,497.0,497.0,483.0,483.0,483.0,483.0,457.0,457.0,457.0,457.0,434.0,434.0,511.9555555555556,513.7111111111111,489.3333333333333,517.0,514.0,509.0
0,504.0,509.0,454.0,25.0,33.0,75.0,504.0,496.0,434.0,505.0,505.0,510.0,510.0,510.0,510.0,510.0,510.0,510.0,510.0,509.0,509.0,509.0,509.0,513.0,513.0,513.0,513.0,504.0,504.0,506.0,506.0,498.0,498.0,498.0,498.0,496.0,496.0,496.0,496.0,499.0,499.0,499.0,499.0,505.0,505.0,505.0,505.0,509.0,509.0,509.0,509.0,497.0,497.0,497.0,497.0,483.0,483.0,483.0,483.0,457.0,457.0,457.0,457.0,434.0,434.0,434.0,434.0,454.0,454.0,512.4444444444445,512.6888888888889,485.6222222222222,513.0,509.0,509.0
0,505.0,517.0,492.0,25.0,33.0,75.0,504.0,496.0,434.0,510.0,510.0,510.0,510.0,510.0,509.0,509.0,509.0,509.0,513.0,513.0,513.0,513.0,504.0,504.0,504.0,504.0,504.0,505.0,505.0,498.0,496.0,496.0,496.0,496.0,499.0,499.0,499.0,499.0,505.0,505.0,505.0,505.0,509.0,509.0,509.0,509.0,509.0,517.0,517.0,497.0,483.0,483.0,483.0,483.0,457.0,457.0,457.0,457.0,434.0,434.0,434.0,434.0,454.0,454.0,454.0,454.0,454.0,492.0,492.0,512.3111111111111,511.5777777777778,484.53333333333336,513.0,517.0,497.0
0,509.0,513.0,503.0,25.0,33.0,75.0,504.0,496.0,434.0,510.0,509.0,509.0,509.0,509.0,513.0,513.0,513.0,513.0,504.0,504.0,504.0,504.0,504.0,505.0,505.0,505.0,505.0,509.0,509.0,496.0,499.0,499.0,499.0,499.0,505.0,505.0,505.0,505.0,509.0,509.0,509.0,509.0,509.0,517.0,517.0,517.0,517.0,513.0,513.0,483.0,457.0,457.0,457.0,457.0,434.0,434.0,434.0,434.0,454.0,454.0,454.0,454.0,454.0,492.0,492.0,492.0,492.0,503.0,503.0,511.8222222222222,510.73333333333335,484.5777777777778,513.0,517.0,503.0
0,493.0,505.0,517.0,36.0,33.0,83.0,493.0,499.0,434.0,509.0,509.0,513.0,513.0,513.0,513.0,504.0,504.0,504.0,504.0,504.0,505.0,505.0,505.0,505.0,509.0,509.0,509.0,493.0,493.0,499.0,499.0,505.0,505.0,505.0,505.0,509.0,509.0,509.0,509.0,509.0,517.0,517.0,517.0,517.0,513.0,513.0,513.0,505.0,505.0,457.0,457.0,434.0,434.0,434.0,434.0,454.0,454.0,454.0,454.0,454.0,492.0,492.0,492.0,492.0,503.0,503.0,503.0,517.0,517.0,510.5777777777778,509.44444444444446,485.2,513.0,517.0,517.0
0,500.0,495.0,541.0,36.0,31.0,107.0,493.0,495.0,434.0,513.0,504.0,504.0,504.0,504.0,504.0,505.0,505.0,505.0,505.0,509.0,509.0,509.0,493.0,493.0,493.0,493.0,493.0,500.0,500.0,505.0,509.0,509.0,509.0,509.0,509.0,517.0,517.0,517.0,517.0,513.0,513.0,513.0,505.0,505.0,505.0,505.0,505.0,495.0,495.0,434.0,454.0,454.0,454.0,454.0,454.0,492.0,492.0,492.0,492.0,503.0,503.0,503.0,517.0,517.0,517.0,517.0,517.0,541.0,541.0,507.68888888888887,506.46666666666664,487.8666666666667,513.0,517.0,541.0
0,501.0,492.0,545.0,24.0,25.0,111.0,493.0,492.0,454.0,504.0,504.0,504.0,504.0,505.0,505.0,505.0,505.0,509.0,509.0,509.0,493.0,493.0,493.0,493.0,493.0,500.0,500.0,500.0,501.0,509.0,509.0,509.0,509.0,517.0,517.0,517.0,517.0,513.0,513.0,513.0,505.0,505.0,505.0,505.0,505.0,495.0,495.0,495.0,492.0,454.0,454.0,454.0,454.0,492.0,492.0,492.0,492.0,503.0,503.0,503.0,517.0,517.0,517.0,517.0,517.0,541.0,541.0,541.0,545.0,506.4222222222222,505.02222222222224,489.68888888888887,509.0,517.0,545.0
0,512.0,499.0,519.0,20.0,25.0,111.0,493.0,492.0,492.0,505.0,505.0,505.0,509.0,509.0,509.0,493.0,493.0,493.0,493.0,493.0,500.0,500.0,500.0,501.0,501.0,501.0,501.0,512.0,512.0,517.0,517.0,517.0,513.0,513.0,513.0,505.0,505.0,505.0,505.0,505.0,495.0,495.0,495.0,492.0,492.0,492.0,492.0,499.0,499.0,492.0,492.0,492.0,503.0,503.0,503.0,517.0,517.0,517.0,517.0,517.0,541.0,541.0,541.0,545.0,545.0,545.0,545.0,519.0,519.0,505.4,503.06666666666666,492.97777777777776,512.0,517.0,545.0
0,515.0,498.0,489.0,22.0,25.0,111.0,493.0,492.0,489.0,509.0,493.0,493.0,493.0,493.0,493.0,500.0,500.0,500.0,501.0,501.0,501.0,501.0,512.0,512.0,512.0,512.0,512.0,515.0,515.0,513.0,505.0,505.0,505.0,505.0,505.0,495.0,495.0,495.0,492.0,492.0,492.0,492.0,499.0,499.0,499.0,499.0,499.0,498.0,498.0,503.0,517.0,517.0,517.0,517.0,517.0,541.0,541.0,541.0,545.0,545.0,545.0,545.0,519.0,519.0,519.0,519.0,519.0,489.0,489.0,506.0888888888889,502.6,493.2888888888889,515.0,513.0,545.0
0,518.0,501.0,489.0,25.0,25.0,111.0,493.0,492.0,489.0,493.0,493.0,500.0,500.0,500.0,501.0,501.0,501.0,501.0,512.0,512.0,512.0,512.0,512.0,515.0,515.0,515.0,515.0,518.0,518.0,505.0,505.0,495.0,495.0,495.0,492.0,492.0,492.0,492.0,499.0,499.0,499.0,499.0,499.0,498.0,498.0,498.0,498.0,501.0,501.0,517.0,517.0,541.0,541.0,541.0,545.0,545.0,545.0,545.0,519.0,519.0,519.0,519.0,519.0,489.0,489.0,489.0,489.0,489.0,489.0,506.6666666666667,502.8222222222222,493.2,518.0,505.0,545.0
0,517.0,508.0,497.0,25.0,25.0,111.0,500.0,492.0,489.0,500.0,501.0,501.0,501.0,501.0,512.0,512.0,512.0,512.0,512.0,515.0,515.0,515.0,515.0,518.0,518.0,518.0,518.0,517.0,517.0,495.0,492.0,492.0,492.0,492.0,499.0,499.0,499.0,499.0,499.0,498.0,498.0,498.0,498.0,501.0,501.0,501.0,501.0,508.0,508.0,541.0,545.0,545.0,545.0,545.0,519.0,519.0,519.0,519.0,519.0,489.0,489.0,489.0,489.0,489.0,489.0,489.0,489.0,497.0,497.0,507.3777777777778,503.44444444444446,495.24444444444447,518.0,508.0,545.0
0,517.0,516.0,494.0,25.0,25.0,111.0,501.0,492.0,489.0,501.0,512.0,512.0,512.0,512.0,512.0,515.0,515.0,515.0,515.0,518.0,518.0,518.0,518.0,517.0,517.0,517.0,517.0,517.0,517.0,492.0,499.0,499.0,499.0,499.0,499.0,498.0,498.0,498.0,498.0,501.0,501.0,501.0,501.0,508.0,508.0,508.0,508.0,516.0,516.0,545.0,519.0,519.0,519.0,519.0,519.0,489.0,489.0,489.0,489.0,489.0,489.0,489.0,489.0,497.0,497.0,497.0,497.0,494.0,494.0,507.9111111111111,504.3333333333333,499.68888888888887,518.0,516.0,545.0
0,517.0,517.0,498.0,25.0,25.0,91.0,512.0,498.0,489.0,512.0,512.0,515.0,515.0,515.0,515.0,518.0,518.0,518.0,518.0,517.0,517.0,517.0,517.0,517.0,517.0,517.0,517.0,517.0,517.0,499.0,499.0,498.0,498.0,498.0,498.0,501.0,501.0,501.0,501.0,508.0,508.0,508.0,508.0,516.0,516.0,516.0,516.0,517.0,517.0,519.0,519.0,489.0,489.0,489.0,489.0,489.0,489.0,489.0,489.0,497.0,497.0,497.0,497.0,494.0,494.0,494.0,494.0,498.0,498.0,508.6666666666667,505.1777777777778,504.31111111111113,518.0,517.0,519.0
0,518.0,519.0,487.0,25.0,27.0,58.0,515.0,498.0,487.0,515.0,515.0,518.0,518.0,518.0,518.0,517.0,517.0,517.0,517.0,517.0,517.0,517.0,517.0,517.0,517.0,517.0,517.0,518.0,518.0,498.0,498.0,501.0,501.0,501.0,501.0,508.0,508.0,508.0,508.0,516.0,516.0,516.0,516.0,517.0,517.0,517.0,517.0,519.0,519.0,489.0,489.0,489.0,489.0,489.0,489.0,497.0,497.0,497.0,497.0,494.0,494.0,494.0,494.0,498.0,498.0,498.0,498.0,487.0,487.0,509.84444444444443,505.8,506.8888888888889,518.0,519.0,498.0
0,528.0,526.0,493.0,35.0,34.0,58.0,517.0,501.0,487.0,518.0,518.0,517.0,517.0,517.0,517.0,517.0,517.0,517.0,517.0,517.0,517.0,517.0,517.0,518.0,518.0,518.0,518.0,528.0,528.0,501.0,501.0,508.0,508.0,508.0,508.0,516.0,516.0,516.0,516.0,517.0,517.0,517.0,517.0,519.0,519.0,519.0,519.0,526.0,526.0,489.0,489.0,497.0,497.0,497.0,497.0,494.0,494.0,494.0,494.0,498.0,498.0,498.0,498.0,487.0,487.0,487.0,487.0,493.0,493.0,511.35555555555555,506.3777777777778,506.46666666666664,528.0,526.0,498.0
0,513.0,526.0,509.0,35.0,34.0,58.0,513.0,508.0,487.0,517.0,517.0,517.0,517.0,517.0,517.0,517.0,517.0,517.0,517.0,518.0,518.0,518.0,518.0,528.0,528.0,528.0,528.0,513.0,513.0,508.0,508.0,516.0,516.0,516.0,516.0,517.0,517.0,517.0,517.0,519.0,519.0,519.0,519.0,526.0,526.0,526.0,526.0,526.0,526.0,497.0,497.0,494.0,494.0,494.0,494.0,498.0,498.0,498.0,498.0,487.0,487.0,487.0,487.0,493.0,493.0,493.0,493.0,509.0,509.0,513.0888888888888,507.8888888888889,505.6666666666667,528.0,526.0,509.0
0,506.0,525.0,522.0,28.0,34.0,58.0,506.0,516.0,487.0,517.0,517.0,517.0,517.0,517.0,517.0,518.0,518.0,518.0,518.0,528.0,528.0,528.0,528.0,513.0,513.0,513.0,513.0,506.0,506.0,516.0,516.0,517.0,517.0,517.0,517.0,519.0,519.0,519.0,519.0,526.0,526.0,526.0,526.0,526.0,526.0,526.0,526.0,525.0,525.0,494.0,494.0,498.0,498.0,498.0,498.0,487.0,487.0,487.0,487.0,493.0,493.0,493.0,493.0,509.0,509.0,509.0,509.0,522.0,522.0,514.4,509.93333333333334,505.0,528.0,526.0,522.0
0,507.0,517.0,543.0,27.0,34.0,58.0,506.0,517.0,487.0,517.0,517.0,518.0,518.0,518.0,518.0,528.0,528.0,528.0,528.0,513.0,513.0,513.0,513.0,506.0,506.0,506.0,506.0,507.0,507.0,517.0,517.0,519.0,519.0,519.0,519.0,526.0,526.0,526.0,526.0,526.0,526.0,526.0,526.0,525.0,525.0,525.0,525.0,517.0,517.0,498.0,498.0,487.0,487.0,487.0,487.0,493.0,493.0,493.0,493.0,509.0,509.0,509.0,509.0,522.0,522.0,522.0,522.0,543.0,543.0,514.9333333333333,512.3777777777777,504.06666666666666,528.0,526.0,543.0
0,517.0,513.0,569.0,22.0,28.0,82.0,506.0,513.0,487.0,518.0,518.0,528.0,528.0,528.0,528.0,513.0,513.0,513.0,513.0,506.0,506.0,506.0,506.0,507.0,507.0,507.0,507.0,517.0,517.0,519.0,519.0,526.0,526.0,526.0,526.0,526.0,526.0,526.0,526.0,525.0,525.0,525.0,525.0,517.0,517.0,517.0,517.0,513.0,513.0,487.0,487.0,493.0,493.0,493.0,493.0,509.0,509.0,509.0,509.0,522.0,522.0,522.0,522.0,543.0,543.0,543.0,543.0,569.0,569.0,515.4222222222222,514.1111111111111,506.2,528.0,526.0,569.0
0,506.0,500.0,577.0,22.0,28.0,90.0,506.0,500.0,493.0,528.0,528.0,528.0,513.0,513.0,513.0,513.0,506.0,506.0,506.0,506.0,507.0,507.0,507.0,507.0,517.0,517.0,517.0,506.0,506.0,526.0,526.0,526.0,526.0,526.0,526.0,526.0,525.0,525.0,525.0,525.0,517.0,517.0,517.0,517.0,513.0,513.0,513.0,500.0,500.0,493.0,493.0,493.0,509.0,509.0,509.0,509.0,522.0,522.0,522.0,522.0,543.0,543.0,543.0,543.0,569.0,569.0,569.0,577.0,577.0,515.2666666666667,514.4666666666667,509.8888888888889,528.0,526.0,577.0
0,507.0,493.0,527.0,22.0,33.0,90.0,506.0,493.0,509.0,513.0,513.0,513.0,506.0,506.0,506.0,506.0,507.0,507.0,507.0,507.0,517.0,517.0,517.0,506.0,506.0,506.0,506.0,507.0,507.0,526.0,526.0,526.0,525.0,525.0,525.0,525.0,517.0,517.0,517.0,517.0,513.0,513.0,513.0,500.0,500.0,500.0,500.0,493.0,493.0,509.0,509.0,509.0,522.0,522.0,522.0,522.0,543.0,543.0,543.0,543.0,569.0,569.0,569.0,577.0,577.0,577.0,577.0,527.0,527.0,514.5111111111111,514.3333333333334,515.4888888888889,517.0,526.0,577.0
0,542.0,506.0,445.0,36.0,33.0,132.0,506.0,493.0,445.0,506.0,506.0,506.0,507.0,507.0,507.0,507.0,517.0,517.0,517.0,506.0,506.0,506.0,506.0,507.0,507.0,507.0,507.0,542.0,542.0,525.0,525.0,525.0,517.0,517.0,517.0,517.0,513.0,513.0,513.0,500.0,500.0,500.0,500.0,493.0,493.0,493.0,493.0,506.0,506.0,522.0,522.0,522.0,543.0,543.0,543.0,543.0,569.0,569.0,569.0,577.0,577.0,577.0,577.0,527.0,527.0,527.0,527.0,445.0,445.0,515.0888888888888,514.2,515.2222222222222,542.0,525.0,577.0
0,515.0,501.0,457.0,36.0,33.0,132.0,506.0,493.0,445.0,507.0,507.0,507.0,507.0,517.0,517.0,517.0,506.0,506.0,506.0,506.0,507.0,507.0,507.0,507.0,542.0,542.0,542.0,515.0,515.0,517.0,517.0,517.0,517.0,513.0,513.0,513.0,500.0,500.0,500.0,500.0,493.0,493.0,493.0,493.0,506.0,506.0,506.0,501.0,501.0,543.0,543.0,543.0,543.0,569.0,569.0,569.0,577.0,577.0,577.0,577.0,527.0,527.0,527.0,527.0,445.0,445.0,445.0,457.0,457.0,515.5555555555555,513.8444444444444,512.2888888888889,542.0,517.0,577.0
0,486.0,501.0,454.0,56.0,33.0,132.0,486.0,493.0,445.0,517.0,517.0,517.0,506.0,506.0,506.0,506.0,507.0,507.0,507.0,507.0,542.0,542.0,542.0,515.0,515.0,515.0,515.0,486.0,486.0,513.0,513.0,513.0,500.0,500.0,500.0,500.0,493.0,493.0,493.0,493.0,506.0,506.0,506.0,501.0,501.0,501.0,501.0,501.0,501.0,569.0,569.0,569.0,577.0,577.0,577.0,577.0,527.0,527.0,527.0,527.0,445.0,445.0,445.0,457.0,457.0,457.0,457.0,454.0,454.0,514.0888888888888,512.6888888888889,508.8,542.0,513.0,577.0
0,512.0,507.0,447.0,56.0,33.0,132.0,486.0,493.0,445.0,517.0,506.0,506.0,506.0,506.0,507.0,507.0,507.0,507.0,542.0,542.0,542.0,515.0,515.0,515.0,515.0,486.0,486.0,486.0,512.0,513.0,500.0,500.0,500.0,500.0,493.0,493.0,493.0,493.0,506.0,506.0,506.0,501.0,501.0,501.0,501.0,501.0,501.0,501.0,507.0,569.0,577.0,577.0,577.0,577.0,527.0,527.0,527.0,527.0,445.0,445.0,445.0,457.0,457.0,457.0,457.0,454.0,454.0,454.0,447.0,513.2888888888889,512.1333333333333,506.77777777777777,542.0,513.0,577.0
0,519.0,508.0,443.0,56.0,33.0,134.0,486.0,493.0,443.0,506.0,507.0,507.0,507.0,507.0,542.0,542.0,542.0,515.0,515.0,515.0,515.0,486.0,486.0,486.0,512.0,512.0,512.0,519.0,519.0,500.0,493.0,493.0,493.0,493.0,506.0,506.0,506.0,501.0,501.0,501.0,501.0,501.0,501.0,501.0,507.0,507.0,507.0,508.0,508.0,577.0,527.0,527.0,527.0,527.0,445.0,445.0,445.0,457.0,457.0,457.0,457.0,454.0,454.0,454.0,447.0,447.0,447.0,443.0,443.0,513.1333333333333,511.24444444444447,502.31111111111113,542.0,508.0,577.0
0,513.0,513.0,629.0,56.0,33.0,186.0,486.0,493.0,443.0,507.0,507.0,542.0,542.0,542.0,515.0,515.0,515.0,515.0,486.0,486.0,486.0,512.0,512.0,512.0,519.0,519.0,519.0,513.0,513.0,493.0,493.0,506.0,506.0,506.0,501.0,501.0,501.0,501.0,501.0,501.0,501.0,507.0,507.0,507.0,508.0,508.0,508.0,513.0,513.0,527.0,527.0,445.0,445.0,445.0,457.0,457.0,457.0,457.0,454.0,454.0,454.0,447.0,447.0,447.0,443.0,443.0,443.0,629.0,629.0,512.9333333333333,510.73333333333335,507.64444444444445,542.0,513.0,629.0
0,508.0,507.0,563.0,56.0,33.0,186.0,486.0,501.0,443.0,542.0,515.0,515.0,515.0,515.0,486.0,486.0,486.0,512.0,512.0,512.0,519.0,519.0,519.0,513.0,513.0,513.0,513.0,508.0,508.0,506.0,501.0,501.0,501.0,501.0,501.0,501.0,501.0,507.0,507.0,507.0,508.0,508.0,508.0,513.0,513.0,513.0,513.0,507.0,507.0,445.0,457.0,457.0,457.0,457.0,454.0,454.0,454.0,447.0,447.0,447.0,443.0,443.0,443.0,629.0,629.0,629.0,629.0,563.0,563.0,511.3777777777778,509.31111111111113,516.8,542.0,513.0,629.0
0,510.0,501.0,424.0,56.0,33.0,205.0,486.0,501.0,424.0,515.0,515.0,486.0,486.0,486.0,512.0,512.0,512.0,519.0,519.0,519.0,513.0,513.0,513.0,513.0,508.0,508.0,508.0,508.0,510.0,501.0,501.0,501.0,501.0,501.0,507.0,507.0,507.0,508.0,508.0,508.0,513.0,513.0,513.0,513.0,507.0,507.0,507.0,507.0,501.0,457.0,457.0,454.0,454.0,454.0,447.0,447.0,447.0,443.0,443.0,443.0,629.0,629.0,629.0,629.0,563.0,563.0,563.0,563.0,424.0,511.0888888888889,507.9111111111111,517.3111111111111,519.0,513.0,629.0
0,532.0,497.0,373.0,56.0,24.0,256.0,508.0,497.0,373.0,512.0,512.0,512.0,519.0,519.0,519.0,513.0,513.0,513.0,513.0,508.0,508.0,508.0,508.0,510.0,510.0,510.0,510.0,532.0,532.0,507.0,507.0,507.0,508.0,508.0,508.0,513.0,513.0,513.0,513.0,507.0,507.0,507.0,507.0,501.0,501.0,501.0,501.0,497.0,497.0,447.0,447.0,447.0,443.0,443.0,443.0,629.0,629.0,629.0,629.0,563.0,563.0,563.0,563.0,424.0,424.0,424.0,424.0,373.0,373.0,512.3555555555556,505.0444444444444,504.44444444444446,532.0,513.0,629.0
0,507.0,498.0,366.0,56.0,24.0,263.0,507.0,497.0,366.0,519.0,519.0,519.0,513.0,513.0,513.0,513.0,508.0,508.0,508.0,508.0,510.0,510.0,510.0,510.0,532.0,532.0,532.0,507.0,507.0,508.0,508.0,508.0,513.0,513.0,513.0,513.0,507.0,507.0,507.0,507.0,501.0,501.0,501.0,501.0,497.0,497.0,497.0,498.0,498.0,443.0,443.0,443.0,629.0,629.0,629.0,629.0,563.0,563.0,563.0,563.0,424.0,424.0,424.0,424.0,373.0,373.0,373.0,366.0,366.0,512.9111111111112,503.75555555555553,492.8,532.0,513.0,629.0
0,508.0,497.0,356.0,56.0,20.0,273.0,507.0,497.0,356.0,513.0,513.0,513.0,508.0,508.0,508.0,508.0,510.0,510.0,510.0,510.0,532.0,532.0,532.0,507.0,507.0,507.0,507.0,508.0,508.0,513.0,513.0,513.0,507.0,507.0,507.0,507.0,501.0,501.0,501.0,501.0,497.0,497.0,497.0,498.0,498.0,498.0,498.0,497.0,497.0,629.0,629.0,629.0,563.0,563.0,563.0,563.0,424.0,424.0,424.0,424.0,373.0,373.0,373.0,366.0,366.0,366.0,366.0,356.0,356.0,512.2888888888889,502.2888888888889,474.8888888888889,532.0,513.0,629.0
0,482.0,507.0,400.0,60.0,20.0,273.0,482.0,497.0,356.0,508.0,508.0,508.0,510.0,510.0,510.0,510.0,532.0,532.0,532.0,507.0,507.0,507.0,507.0,508.0,508.0,508.0,508.0,482.0,482.0,507.0,507.0,507.0,501.0,501.0,501.0,501.0,497.0,497.0,497.0,498.0,498.0,498.0,498.0,497.0,497.0,497.0,497.0,507.0,507.0,563.0,563.0,563.0,424.0,424.0,424.0,424.0,373.0,373.0,373.0,366.0,366.0,366.0,366.0,356.0,356.0,356.0,356.0,400.0,400.0,511.31111111111113,502.46666666666664,457.2,532.0,507.0,563.0
0,501.0,510.0,465.0,60.0,16.0,273.0,482.0,497.0,356.0,510.0,510.0,510.0,532.0,532.0,532.0,507.0,507.0,507.0,507.0,508.0,508.0,508.0,508.0,482.0,482.0,482.0,482.0,501.0,501.0,501.0,501.0,501.0,497.0,497.0,497.0,498.0,498.0,498.0,498.0,497.0,497.0,497.0,497.0,507.0,507.0,507.0,507.0,510.0,510.0,424.0,424.0,424.0,373.0,373.0,373.0,366.0,366.0,366.0,366.0,356.0,356.0,356.0,356.0,400.0,400.0,400.0,400.0,465.0,465.0,509.93333333333334,503.84444444444443,448.8,532.0,510.0,465.0
0,503.0,513.0,485.0,50.0,16.0,273.0,482.0,497.0,356.0,532.0,532.0,507.0,507.0,507.0,507.0,508.0,508.0,508.0,508.0,482.0,482.0,482.0,482.0,501.0,501.0,501.0,501.0,503.0,503.0,497.0,497.0,498.0,498.0,498.0,498.0,497.0,497.0,497.0,497.0,507.0,507.0,507.0,507.0,510.0,510.0,510.0,510.0,513.0,513.0,373.0,373.0,366.0,366.0,366.0,366.0,356.0,356.0,356.0,356.0,400.0,400.0,400.0,400.0,465.0,465.0,465.0,465.0,485.0,485.0,506.97777777777776,504.44444444444446,451.2,532.0,513.0,485.0
0,536.0,515.0,491.0,54.0,18.0,273.0,482.0,497.0,356.0,507.0,507.0,508.0,508.0,508.0,508.0,482.0,482.0,482.0,482.0,501.0,501.0,501.0,501.0,503.0,503.0,503.0,503.0,536.0,536.0,498.0,498.0,497.0,497.0,497.0,497.0,507.0,507.0,507.0,507.0,510.0,510.0,510.0,510.0,513.0,513.0,513.0,513.0,515.0,515.0,366.0,366.0,356.0,356.0,356.0,356.0,400.0,400.0,400.0,400.0,465.0,465.0,465.0,465.0,485.0,485.0,485.0,485.0,491.0,491.0,508.02222222222224,505.6,454.02222222222224,536.0,515.0,491.0
0,510.0,518.0,508.0,54.0,21.0,273.0,482.0,497.0,356.0,508.0,508.0,482.0,482.0,482.0,482.0,501.0,501.0,501.0,501.0,503.0,503.0,503.0,503.0,536.0,536.0,536.0,536.0,510.0,510.0,497.0,497.0,507.0,507.0,507.0,507.0,510.0,510.0,510.0,510.0,513.0,513.0,513.0,513.0,515.0,515.0,515.0,515.0,518.0,518.0,356.0,356.0,400.0,400.0,400.0,400.0,465.0,465.0,465.0,465.0,485.0,485.0,485.0,485.0,491.0,491.0,491.0,491.0,508.0,508.0,510.15555555555557,506.7111111111111,458.3777777777778,536.0,518.0,508.0
0,546.0,530.0,551.0,64.0,33.0,273.0,482.0,507.0,400.0,482.0,482.0,501.0,501.0,501.0,501.0,503.0,503.0,503.0,503.0,536.0,536.0,536.0,536.0,510.0,510.0,510.0,510.0,546.0,546.0,507.0,507.0,510.0,510.0,510.0,510.0,513.0,513.0,513.0,513.0,515.0,515.0,515.0,515.0,518.0,518.0,518.0,518.0,530.0,530.0,400.0,400.0,465.0,465.0,465.0,465.0,485.0,485.0,485.0,485.0,491.0,491.0,491.0,491.0,508.0,508.0,508.0,508.0,551.0,551.0,511.1111111111111,508.15555555555557,465.97777777777776,546.0,530.0,551.0
0,509.0,524.0,597.0,64.0,33.0,241.0,501.0,510.0,465.0,501.0,501.0,503.0,503.0,503.0,503.0,536.0,536.0,536.0,536.0,510.0,510.0,510.0,510.0,546.0,546.0,546.0,546.0,509.0,509.0,510.0,510.0,513.0,513.0,513.0,513.0,515.0,515.0,515.0,515.0,518.0,518.0,518.0,518.0,530.0,530.0,530.0,530.0,524.0,524.0,465.0,465.0,485.0,485.0,485.0,485.0,491.0,491.0,491.0,491.0,508.0,508.0,508.0,508.0,551.0,551.0,551.0,551.0,597.0,597.0,512.4,509.4,461.0888888888889,546.0,530.0,597.0
0,493.0,515.0,610.0,64.0,33.0,254.0,493.0,513.0,485.0,503.0,503.0,503.0,536.0,536.0,536.0,536.0,510.0,510.0,510.0,510.0,546.0,546.0,546.0,546.0,509.0,509.0,509.0,509.0,493.0,513.0,513.0,513.0,515.0,515.0,515.0,515.0,518.0,518.0,518.0,518.0,530.0,530.0,530.0,530.0,524.0,524.0,524.0,524.0,515.0,485.0,485.0,485.0,491.0,491.0,491.0,491.0,508.0,508.0,508.0,508.0,551.0,551.0,551.0,551.0,597.0,597.0,597.0,597.0,610.0,512.1111111111111,510.3333333333333,463.64444444444445,546.0,530.0,610.0
0,512.0,515.0,572.0,64.0,33.0,254.0,493.0,515.0,491.0,536.0,536.0,510.0,510.0,510.0,510.0,546.0,546.0,546.0,546.0,509.0,509.0,509.0,509.0,493.0,493.0,493.0,493.0,512.0,512.0,515.0,515.0,518.0,518.0,518.0,518.0,530.0,530.0,530.0,530.0,524.0,524.0,524.0,524.0,515.0,515.0,515.0,515.0,515.0,515.0,491.0,491.0,508.0,508.0,508.0,508.0,551.0,551.0,551.0,551.0,597.0,597.0,597.0,597.0,610.0,610.0,610.0,610.0,572.0,572.0,511.1111111111111,511.75555555555553,479.53333333333336,546.0,530.0,610.0
0,510.0,509.0,541.0,64.0,33.0,254.0,493.0,509.0,508.0,510.0,510.0,546.0,546.0,546.0,546.0,509.0,509.0,509.0,509.0,493.0,493.0,493.0,493.0,512.0,512.0,512.0,512.0,510.0,510.0,518.0,518.0,530.0,530.0,530.0,530.0,524.0,524.0,524.0,524.0,515.0,515.0,515.0,515.0,515.0,515.0,515.0,515.0,509.0,509.0,508.0,508.0,551.0,551.0,551.0,551.0,597.0,597.0,597.0,597.0,610.0,610.0,610.0,610.0,572.0,572.0,572.0,572.0,541.0,541.0,509.8,513.0666666666667,496.0,546.0,530.0,610.0
0,542.0,501.0,527.0,64.0,33.0,254.0,493.0,501.0,527.0,546.0,546.0,509.0,509.0,509.0,509.0,493.0,493.0,493.0,493.0,512.0,512.0,512.0,512.0,510.0,510.0,510.0,510.0,542.0,542.0,530.0,530.0,524.0,524.0,524.0,524.0,515.0,515.0,515.0,515.0,515.0,515.0,515.0,515.0,509.0,509.0,509.0,509.0,501.0,501.0,551.0,551.0,597.0,597.0,597.0,597.0,610.0,610.0,610.0,610.0,572.0,572.0,572.0,572.0,541.0,541.0,541.0,541.0,527.0,527.0,511.46666666666664,513.7111111111111,511.15555555555557,546.0,530.0,610.0
0,502.0,502.0,507.0,64.0,29.0,210.0,493.0,501.0,507.0,509.0,493.0,493.0,493.0,493.0,512.0,512.0,512.0,512.0,510.0,510.0,510.0,510.0,542.0,542.0,542.0,542.0,542.0,502.0,502.0,524.0,515.0,515.0,515.0,515.0,515.0,515.0,515.0,515.0,509.0,509.0,509.0,509.0,501.0,501.0,501.0,501.0,501.0,502.0,502.0,597.0,610.0,610.0,610.0,610.0,572.0,572.0,572.0,572.0,541.0,541.0,541.0,541.0,527.0,527.0,527.0,527.0,527.0,507.0,507.0,514.6222222222223,513.7555555555556,527.3111111111111,542.0,524.0,610.0
0,526.0,506.0,495.0,53.0,29.0,145.0,493.0,501.0,495.0,493.0,512.0,512.0,512.0,512.0,510.0,510.0,510.0,510.0,542.0,542.0,542.0,542.0,542.0,502.0,502.0,502.0,502.0,526.0,526.0,515.0,515.0,515.0,515.0,515.0,509.0,509.0,509.0,509.0,501.0,501.0,501.0,501.0,501.0,502.0,502.0,502.0,502.0,506.0,506.0,610.0,572.0,572.0,572.0,572.0,541.0,541.0,541.0,541.0,527.0,527.0,527.0,527.0,527.0,507.0,507.0,507.0,507.0,495.0,495.0,516.6222222222223,513.3555555555556,533.4,542.0,515.0,610.0
0,499.0,504.0,481.0,53.0,29.0,129.0,499.0,501.0,481.0,512.0,510.0,510.0,510.0,510.0,542.0,542.0,542.0,542.0,542.0,502.0,502.0,502.0,502.0,526.0,526.0,526.0,526.0,499.0,499.0,515.0,509.0,509.0,509.0,509.0,501.0,501.0,501.0,501.0,501.0,502.0,502.0,502.0,502.0,506.0,506.0,506.0,506.0,504.0,504.0,572.0,541.0,541.0,541.0,541.0,527.0,527.0,527.0,527.0,527.0,507.0,507.0,507.0,507.0,495.0,495.0,495.0,495.0,481.0,481.0,517.5555555555555,512.7777777777778,534.5555555555555,542.0,515.0,572.0
0,513.0,500.0,453.0,53.0,30.0,157.0,499.0,500.0,453.0,510.0,542.0,542.0,542.0,542.0,542.0,502.0,502.0,502.0,502.0,526.0,526.0,526.0,526.0,499.0,499.0,499.0,499.0,513.0,513.0,509.0,501.0,501.0,501.0,501.0,501.0,502.0,502.0,502.0,502.0,506.0,506.0,506.0,506.0,504.0,504.0,504.0,504.0,500.0,500.0,541.0,527.0,527.0,527.0,527.0,527.0,507.0,507.0,507.0,507.0,495.0,495.0,495.0,495.0,481.0,481.0,481.0,481.0,453.0,453.0,516.3555555555556,511.7111111111111,532.6888888888889,542.0,509.0,541.0
0,493.0,503.0,431.0,53.0,30.0,179.0,493.0,500.0,431.0,542.0,542.0,502.0,502.0,502.0,502.0,526.0,526.0,526.0,526.0,499.0,499.0,499.0,499.0,513.0,513.0,513.0,513.0,493.0,493.0,501.0,501.0,502.0,502.0,502.0,502.0,506.0,506.0,506.0,506.0,504.0,504.0,504.0,504.0,500.0,500.0,500.0,500.0,503.0,503.0,527.0,527.0,507.0,507.0,507.0,507.0,495.0,495.0,495.0,495.0,481.0,481.0,481.0,481.0,453.0,453.0,453.0,453.0,431.0,431.0,514.5777777777778,510.3777777777778,527.5777777777778,542.0,506.0,527.0
0,488.0,509.0,437.0,58.0,30.0,179.0,488.0,500.0,431.0,502.0,502.0,526.0,526.0,526.0,526.0,499.0,499.0,499.0,499.0,513.0,513.0,513.0,513.0,493.0,493.0,493.0,493.0,488.0,488.0,502.0,502.0,506.0,506.0,506.0,506.0,504.0,504.0,504.0,504.0,500.0,500.0,500.0,500.0,503.0,503.0,503.0,503.0,509.0,509.0,507.0,507.0,495.0,495.0,495.0,495.0,481.0,481.0,481.0,481.0,453.0,453.0,453.0,453.0,431.0,431.0,431.0,431.0,437.0,437.0,511.24444444444447,508.77777777777777,519.0888888888888,526.0,509.0,507.0
0,504.0,504.0,482.0,54.0,24.0,179.0,488.0,500.0,431.0,526.0,526.0,499.0,499.0,499.0,499.0,513.0,513.0,513.0,513.0,493.0,493.0,493.0,493.0,488.0,488.0,488.0,488.0,504.0,504.0,506.0,506.0,504.0,504.0,504.0,504.0,500.0,500.0,500.0,500.0,503.0,503.0,503.0,503.0,509.0,509.0,509.0,509.0,504.0,504.0,495.0,495.0,481.0,481.0,481.0,481.0,453.0,453.0,453.0,453.0,431.0,431.0,431.0,431.0,437.0,437.0,437.0,437.0,482.0,482.0,508.44444444444446,506.9555555555556,508.9111111111111,526.0,509.0,495.0
0,506.0,499.0,523.0,54.0,16.0,179.0,488.0,499.0,431.0,499.0,499.0,513.0,513.0,513.0,513.0,493.0,493.0,493.0,493.0,488.0,488.0,488.0,488.0,504.0,504.0,504.0,504.0,506.0,506.0,504.0,504.0,500.0,500.0,500.0,500.0,503.0,503.0,503.0,503.0,509.0,509.0,509.0,509.0,504.0,504.0,504.0,504.0,499.0,499.0,481.0,481.0,453.0,453.0,453.0,453.0,431.0,431.0,431.0,431.0,437.0,437.0,437.0,437.0,482.0,482.0,482.0,482.0,523.0,523.0,508.8,505.35555555555555,499.93333333333334,513.0,509.0,523.0
0,491.0,496.0,547.0,54.0,19.0,141.0,488.0,496.0,431.0,513.0,513.0,513.0,493.0,493.0,493.0,493.0,488.0,488.0,488.0,488.0,504.0,504.0,504.0,504.0,506.0,506.0,506.0,491.0,491.0,500.0,500.0,500.0,503.0,503.0,503.0,503.0,509.0,509.0,509.0,509.0,504.0,504.0,504.0,504.0,499.0,499.0,499.0,496.0,496.0,453.0,453.0,453.0,431.0,431.0,431.0,431.0,437.0,437.0,437.0,437.0,482.0,482.0,482.0,482.0,523.0,523.0,523.0,547.0,547.0,508.5777777777778,504.15555555555557,496.0444444444444,513.0,509.0,547.0
0,510.0,496.0,559.0,54.0,13.0,128.0,488.0,496.0,431.0,493.0,493.0,493.0,488.0,488.0,488.0,488.0,504.0,504.0,504.0,504.0,506.0,506.0,506.0,491.0,491.0,491.0,510.0,510.0,510.0,503.0,503.0,503.0,509.0,509.0,509.0,509.0,504.0,504.0,504.0,504.0,499.0,499.0,499.0,496.0,496.0,496.0,496.0,496.0,496.0,431.0,431.0,431.0,437.0,437.0,437.0,437.0,482.0,482.0,482.0,482.0,523.0,523.0,523.0,547.0,547.0,547.0,559.0,559.0,559.0,508.02222222222224,502.6,495.31111111111113,510.0,509.0,559.0
0,519.0,493.0,559.0,54.0,16.0,128.0,488.0,493.0,437.0,488.0,488.0,488.0,488.0,504.0,504.0,504.0,504.0,506.0,506.0,506.0,491.0,491.0,491.0,510.0,510.0,510.0,510.0,510.0,519.0,509.0,509.0,509.0,509.0,504.0,504.0,504.0,504.0,499.0,499.0,499.0,496.0,496.0,496.0,496.0,496.0,496.0,496.0,496.0,493.0,437.0,437.0,437.0,437.0,482.0,482.0,482.0,482.0,523.0,523.0,523.0,547.0,547.0,547.0,559.0,559.0,559.0,559.0,559.0,559.0,508.22222222222223,501.6666666666667,496.5111111111111,519.0,509.0,559.0
0,509.0,499.0,555.0,38.0,16.0,128.0,491.0,493.0,482.0,504.0,504.0,504.0,506.0,506.0,506.0,491.0,491.0,491.0,510.0,510.0,510.0,510.0,510.0,519.0,519.0,519.0,519.0,509.0,509.0,504.0,504.0,504.0,499.0,499.0,499.0,496.0,496.0,496.0,496.0,496.0,496.0,496.0,496.0,493.0,493.0,493.0,493.0,499.0,499.0,482.0,482.0,482.0,523.0,523.0,523.0,547.0,547.0,547.0,559.0,559.0,559.0,559.0,559.0,559.0,559.0,559.0,559.0,555.0,555.0,505.22222222222223,501.0444444444444,499.8888888888889,519.0,504.0,559.0
0,506.0,500.0,546.0,38.0,16.0,128.0,491.0,493.0,523.0,506.0,506.0,491.0,491.0,491.0,510.0,510.0,510.0,510.0,510.0,519.0,519.0,519.0,519.0,509.0,509.0,509.0,509.0,506.0,506.0,499.0,499.0,496.0,496.0,496.0,496.0,496.0,496.0,496.0,496.0,493.0,493.0,493.0,493.0,499.0,499.0,499.0,499.0,500.0,500.0,523.0,523.0,547.0,547.0,547.0,559.0,559.0,559.0,559.0,559.0,559.0,559.0,559.0,559.0,555.0,555.0,555.0,555.0,546.0,546.0,505.7111111111111,500.8222222222222,503.75555555555553,519.0,500.0,559.0
0,513.0,515.0,561.0,31.0,22.0,130.0,491.0,493.0,546.0,491.0,510.0,510.0,510.0,510.0,510.0,519.0,519.0,519.0,519.0,509.0,509.0,509.0,509.0,506.0,506.0,506.0,506.0,513.0,513.0,496.0,496.0,496.0,496.0,496.0,496.0,493.0,493.0,493.0,493.0,499.0,499.0,499.0,499.0,500.0,500.0,500.0,500.0,515.0,515.0,547.0,559.0,559.0,559.0,559.0,559.0,559.0,559.0,559.0,559.0,555.0,555.0,555.0,555.0,546.0,546.0,546.0,546.0,561.0,561.0,504.24444444444447,500.9555555555556,508.9555555555556,519.0,515.0,561.0
0,522.0,517.0,560.0,34.0,24.0,130.0,506.0,493.0,546.0,510.0,510.0,519.0,519.0,519.0,519.0,509.0,509.0,509.0,509.0,506.0,506.0,506.0,506.0,513.0,513.0,513.0,513.0,522.0,522.0,496.0,496.0,493.0,493.0,493.0,493.0,499.0,499.0,499.0,499.0,500.0,500.0,500.0,500.0,515.0,515.0,515.0,515.0,517.0,517.0,559.0,559.0,559.0,559.0,559.0,559.0,555.0,555.0,555.0,555.0,546.0,546.0,546.0,546.0,561.0,561.0,561.0,561.0,560.0,560.0,505.8888888888889,502.02222222222224,516.0222222222222,522.0,517.0,561.0
0,511.0,523.0,558.0,34.0,30.0,130.0,506.0,493.0,546.0,519.0,519.0,509.0,509.0,509.0,509.0,506.0,506.0,506.0,506.0,513.0,513.0,513.0,513.0,522.0,522.0,522.0,522.0,511.0,511.0,493.0,493.0,499.0,499.0,499.0,499.0,500.0,500.0,500.0,500.0,515.0,515.0,515.0,515.0,517.0,517.0,517.0,517.0,523.0,523.0,559.0,559.0,555.0,555.0,555.0,555.0,546.0,546.0,546.0,546.0,561.0,561.0,561.0,561.0,560.0,560.0,560.0,560.0,558.0,558.0,506.2,503.8,525.4444444444445,522.0,523.0,561.0
0,531.0,528.0,551.0,43.0,35.0,124.0,506.0,499.0,546.0,509.0,509.0,506.0,506.0,506.0,506.0,513.0,513.0,513.0,513.0,522.0,522.0,522.0,522.0,511.0,511.0,511.0,511.0,531.0,531.0,499.0,499.0,500.0,500.0,500.0,500.0,515.0,515.0,515.0,515.0,517.0,517.0,517.0,517.0,523.0,523.0,523.0,523.0,528.0,528.0,555.0,555.0,546.0,546.0,546.0,546.0,561.0,561.0,561.0,561.0,560.0,560.0,560.0,560.0,558.0,558.0,558.0,558.0,551.0,551.0,508.68888888888887,505.8,536.4222222222222,531.0,528.0,561.0
0,500.0,528.0,550.0,40.0,35.0,79.0,500.0,500.0,546.0,506.0,506.0,513.0,513.0,513.0,513.0,522.0,522.0,522.0,522.0,511.0,511.0,511.0,511.0,531.0,531.0,531.0,531.0,500.0,500.0,500.0,500.0,515.0,515.0,515.0,515.0,517.0,517.0,517.0,517.0,523.0,523.0,523.0,523.0,528.0,528.0,528.0,528.0,528.0,528.0,546.0,546.0,561.0,561.0,561.0,561.0,560.0,560.0,560.0,560.0,558.0,558.0,558.0,558.0,551.0,551.0,551.0,551.0,550.0,550.0,511.1333333333333,507.4888888888889,546.5111111111111,531.0,528.0,561.0
0,522.0,517.0,552.0,40.0,35.0,38.0,500.0,515.0,550.0,513.0,513.0,522.0,522.0,522.0,522.0,511.0,511.0,511.0,511.0,531.0,531.0,531.0,531.0,500.0,500.0,500.0,500.0,500.0,522.0,515.0,515.0,517.0,517.0,517.0,517.0,523.0,523.0,523.0,523.0,528.0,528.0,528.0,528.0,528.0,528.0,528.0,528.0,528.0,517.0,561.0,561.0,560.0,560.0,560.0,560.0,558.0,558.0,558.0,558.0,551.0,551.0,551.0,551.0,550.0,550.0,550.0,550.0,550.0,552.0,511.26666666666665,509.3777777777778,552.6,531.0,528.0,561.0
0,511.0,509.0,551.0,40.0,35.0,15.0,500.0,509.0,550.0,522.0,511.0,511.0,511.0,511.0,531.0,531.0,531.0,531.0,500.0,500.0,500.0,500.0,500.0,522.0,522.0,522.0,522.0,511.0,511.0,517.0,523.0,523.0,523.0,523.0,528.0,528.0,528.0,528.0,528.0,528.0,528.0,528.0,528.0,517.0,517.0,517.0,517.0,509.0,509.0,560.0,558.0,558.0,558.0,558.0,551.0,551.0,551.0,551.0,550.0,550.0,550.0,550.0,550.0,552.0,552.0,552.0,552.0,551.0,551.0,513.2222222222222,511.15555555555557,554.7111111111111,531.0,528.0,560.0
0,558.0,512.0,548.0,58.0,35.0,15.0,500.0,509.0,548.0,511.0,531.0,531.0,531.0,531.0,500.0,500.0,500.0,500.0,500.0,522.0,522.0,522.0,522.0,511.0,511.0,511.0,511.0,558.0,558.0,523.0,528.0,528.0,528.0,528.0,528.0,528.0,528.0,528.0,528.0,517.0,517.0,517.0,517.0,509.0,509.0,509.0,509.0,512.0,512.0,558.0,551.0,551.0,551.0,551.0,550.0,550.0,550.0,550.0,550.0,552.0,552.0,552.0,552.0,551.0,551.0,551.0,551.0,548.0,548.0,515.8222222222222,512.4444444444445,554.1333333333333,558.0,528.0,558.0
0,508.0,512.0,549.0,58.0,35.0,15.0,500.0,509.0,548.0,531.0,500.0,500.0,500.0,500.0,500.0,522.0,522.0,522.0,522.0,511.0,511.0,511.0,511.0,558.0,558.0,558.0,558.0,508.0,508.0,528.0,528.0,528.0,528.0,528.0,528.0,517.0,517.0,517.0,517.0,509.0,509.0,509.0,509.0,512.0,512.0,512.0,512.0,512.0,512.0,551.0,550.0,550.0,550.0,550.0,550.0,552.0,552.0,552.0,552.0,551.0,551.0,551.0,551.0,548.0,548.0,548.0,548.0,549.0,549.0,517.4666666666667,514.0,553.2,558.0,528.0,552.0
0,498.0,502.0,544.0,60.0,29.0,17.0,498.0,502.0,544.0,500.0,500.0,522.0,522.0,522.0,522.0,511.0,511.0,511.0,511.0,558.0,558.0,558.0,558.0,508.0,508.0,508.0,508.0,498.0,498.0,528.0,528.0,517.0,517.0,517.0,517.0,509.0,509.0,509.0,509.0,512.0,512.0,512.0,512.0,512.0,512.0,512.0,512.0,502.0,502.0,550.0,550.0,552.0,552.0,552.0,552.0,551.0,551.0,551.0,551.0,548.0,548.0,548.0,548.0,549.0,549.0,549.0,549.0,544.0,544.0,516.4888888888889,514.9777777777778,552.2666666666667,558.0,528.0,552.0
0,502.0,502.0,539.0,60.0,28.0,22.0,498.0,502.0,539.0,522.0,522.0,511.0,511.0,511.0,511.0,558.0,558.0,558.0,558.0,508.0,508.0,508.0,508.0,498.0,498.0,498.0,498.0,502.0,502.0,517.0,517.0,509.0,509.0,509.0,509.0,512.0,512.0,512.0,512.0,512.0,512.0,512.0,512.0,502.0,502.0,502.0,502.0,502.0,502.0,552.0,552.0,551.0,551.0,551.0,551.0,548.0,548.0,548.0,548.0,549.0,549.0,549.0,549.0,544.0,544.0,544.0,544.0,539.0,539.0,515.8222222222222,515.2,551.4666666666667,558.0,517.0,552.0
0,496.0,505.0,533.0,62.0,26.0,28.0,496.0,502.0,533.0,511.0,511.0,558.0,558.0,558.0,558.0,508.0,508.0,508.0,508.0,498.0,498.0,498.0,498.0,502.0,502.0,502.0,502.0,496.0,496.0,509.0,509.0,512.0,512.0,512.0,512.0,512.0,512.0,512.0,512.0,502.0,502.0,502.0,502.0,502.0,502.0,502.0,502.0,505.0,505.0,551.0,551.0,548.0,548.0,548.0,548.0,549.0,549.0,549.0,549.0,544.0,544.0,544.0,544.0,539.0,539.0,539.0,539.0,533.0,533.0,514.8888888888889,514.8444444444444,549.9111111111112,558.0,512.0,551.0
0,514.0,504.0,521.0,62.0,26.0,39.0,496.0,502.0,521.0,558.0,508.0,508.0,508.0,508.0,498.0,498.0,498.0,498.0,502.0,502.0,502.0,502.0,496.0,496.0,496.0,496.0,496.0,514.0,514.0,512.0,512.0,512.0,512.0,512.0,502.0,502.0,502.0,502.0,502.0,502.0,502.0,502.0,505.0,505.0,505.0,505.0,505.0,504.0,504.0,548.0,549.0,549.0,549.0,549.0,544.0,544.0,544.0,544.0,539.0,539.0,539.0,539.0,533.0,533.0,533.0,533.0,533.0,521.0,521.0,513.2,513.5555555555555,546.3333333333334,558.0,512.0,549.0
0,510.0,499.0,508.0,62.0,29.0,50.0,496.0,499.0,508.0,508.0,498.0,498.0,498.0,498.0,502.0,502.0,502.0,502.0,496.0,496.0,496.0,496.0,496.0,514.0,514.0,514.0,514.0,510.0,510.0,512.0,502.0,502.0,502.0,502.0,502.0,502.0,502.0,502.0,505.0,505.0,505.0,505.0,505.0,504.0,504.0,504.0,504.0,499.0,499.0,549.0,544.0,544.0,544.0,544.0,539.0,539.0,539.0,539.0,533.0,533.0,533.0,533.0,533.0,521.0,521.0,521.0,521.0,508.0,508.0,513.0444444444445,511.77777777777777,542.4222222222222,514.0,512.0,549.0
0,497.0,500.0,489.0,62.0,29.0,63.0,496.0,499.0,489.0,498.0,502.0,502.0,502.0,502.0,496.0,496.0,496.0,496.0,496.0,514.0,514.0,514.0,514.0,510.0,510.0,510.0,510.0,497.0,497.0,502.0,502.0,502.0,502.0,502.0,505.0,505.0,505.0,505.0,505.0,504.0,504.0,504.0,504.0,499.0,499.0,499.0,499.0,500.0,500.0,544.0,539.0,539.0,539.0,539.0,533.0,533.0,533.0,533.0,533.0,521.0,521.0,521.0,521.0,508.0,508.0,508.0,508.0,489.0,489.0,511.0444444444444,509.35555555555555,537.6,514.0,505.0,544.0
0,486.0,501.0,480.0,72.0,29.0,72.0,486.0,499.0,480.0,502.0,496.0,496.0,496.0,496.0,496.0,514.0,514.0,514.0,514.0,510.0,510.0,510.0,510.0,497.0,497.0,497.0,497.0,486.0,486.0,502.0,505.0,505.0,505.0,505.0,505.0,504.0,504.0,504.0,504.0,499.0,499.0,499.0,499.0,500.0,500.0,500.0,500.0,501.0,501.0,539.0,533.0,533.0,533.0,533.0,533.0,521.0,521.0,521.0,521.0,508.0,508.0,508.0,508.0,489.0,489.0,489.0,489.0,480.0,480.0,509.6,506.9111111111111,531.7555555555556,514.0,505.0,539.0
0,530.0,500.0,475.0,72.0,18.0,77.0,486.0,499.0,475.0,496.0,496.0,514.0,514.0,514.0,514.0,510.0,510.0,510.0,510.0,497.0,497.0,497.0,497.0,486.0,486.0,486.0,486.0,530.0,530.0,505.0,505.0,504.0,504.0,504.0,504.0,499.0,499.0,499.0,499.0,500.0,500.0,500.0,500.0,501.0,501.0,501.0,501.0,500.0,500.0,533.0,533.0,521.0,521.0,521.0,521.0,508.0,508.0,508.0,508.0,489.0,489.0,489.0,489.0,480.0,480.0,480.0,480.0,475.0,475.0,509.3333333333333,504.9555555555556,525.2222222222222,530.0,505.0,533.0
0,496.0,493.0,478.0,72.0,19.0,76.0,486.0,493.0,475.0,514.0,514.0,510.0,510.0,510.0,510.0,497.0,497.0,497.0,497.0,486.0,486.0,486.0,486.0,530.0,530.0,530.0,530.0,496.0,496.0,504.0,504.0,499.0,499.0,499.0,499.0,500.0,500.0,500.0,500.0,501.0,501.0,501.0,501.0,500.0,500.0,500.0,500.0,493.0,493.0,521.0,521.0,508.0,508.0,508.0,508.0,489.0,489.0,489.0,489.0,480.0,480.0,480.0,480.0,475.0,475.0,475.0,475.0,478.0,478.0,509.02222222222224,503.4888888888889,518.5555555555555,530.0,504.0,521.0
0,506.0,497.0,476.0,72.0,19.0,74.0,486.0,493.0,475.0,510.0,510.0,510.0,497.0,497.0,497.0,497.0,486.0,486.0,486.0,486.0,530.0,530.0,530.0,530.0,496.0,496.0,496.0,506.0,506.0,499.0,499.0,499.0,500.0,500.0,500.0,500.0,501.0,501.0,501.0,501.0,500.0,500.0,500.0,500.0,493.0,493.0,493.0,497.0,497.0,508.0,508.0,508.0,489.0,489.0,489.0,489.0,480.0,480.0,480.0,480.0,475.0,475.0,475.0,475.0,478.0,478.0,478.0,476.0,476.0,507.4222222222222,502.53333333333336,513.6666666666666,530.0,501.0,508.0
0,499.0,502.0,478.0,44.0,19.0,74.0,486.0,493.0,475.0,497.0,497.0,497.0,486.0,486.0,486.0,486.0,530.0,530.0,530.0,530.0,496.0,496.0,496.0,506.0,506.0,506.0,506.0,499.0,499.0,500.0,500.0,500.0,501.0,501.0,501.0,501.0,500.0,500.0,500.0,500.0,493.0,493.0,493.0,497.0,497.0,497.0,497.0,502.0,502.0,489.0,489.0,489.0,480.0,480.0,480.0,480.0,475.0,475.0,475.0,475.0,478.0,478.0,478.0,476.0,476.0,476.0,476.0,478.0,478.0,503.6,501.4222222222222,507.3333333333333,530.0,502.0,489.0
0,509.0,503.0,477.0,44.0,12.0,69.0,486.0,493.0,475.0,486.0,486.0,486.0,530.0,530.0,530.0,530.0,496.0,496.0,496.0,506.0,506.0,506.0,506.0,499.0,499.0,499.0,499.0,509.0,509.0,501.0,501.0,501.0,500.0,500.0,500.0,500.0,493.0,493.0,493.0,497.0,497.0,497.0,497.0,502.0,502.0,502.0,502.0,503.0,503.0,480.0,480.0,480.0,475.0,475.0,475.0,475.0,478.0,478.0,478.0,476.0,476.0,476.0,476.0,478.0,478.0,478.0,478.0,477.0,477.0,503.46666666666664,500.8,501.0888888888889,530.0,503.0,480.0
0,512.0,502.0,481.0,44.0,12.0,64.0,496.0,493.0,475.0,530.0,530.0,530.0,496.0,496.0,496.0,506.0,506.0,506.0,506.0,499.0,499.0,499.0,499.0,509.0,509.0,509.0,509.0,512.0,512.0,500.0,500.0,500.0,493.0,493.0,493.0,497.0,497.0,497.0,497.0,502.0,502.0,502.0,502.0,503.0,503.0,503.0,503.0,502.0,502.0,475.0,475.0,475.0,478.0,478.0,478.0,476.0,476.0,476.0,476.0,478.0,478.0,478.0,478.0,477.0,477.0,477.0,477.0,481.0,481.0,504.4888888888889,500.84444444444443,495.4222222222222,530.0,503.0,481.0
0,511.0,509.0,489.0,44.0,16.0,58.0,496.0,493.0,476.0,496.0,496.0,496.0,506.0,506.0,506.0,506.0,499.0,499.0,499.0,499.0,509.0,509.0,509.0,509.0,512.0,512.0,512.0,511.0,511.0,493.0,493.0,493.0,497.0,497.0,497.0,497.0,502.0,502.0,502.0,502.0,503.0,503.0,503.0,503.0,502.0,502.0,502.0,509.0,509.0,478.0,478.0,478.0,476.0,476.0,476.0,476.0,478.0,478.0,478.0,478.0,477.0,477.0,477.0,477.0,481.0,481.0,481.0,489.0,489.0,505.1111111111111,501.15555555555557,491.9111111111111,512.0,509.0,489.0
0,495.0,510.0,503.0,44.0,17.0,58.0,495.0,497.0,476.0,506.0,506.0,506.0,499.0,499.0,499.0,499.0,509.0,509.0,509.0,509.0,512.0,512.0,512.0,511.0,511.0,511.0,511.0,495.0,495.0,497.0,497.0,497.0,502.0,502.0,502.0,502.0,503.0,503.0,503.0,503.0,502.0,502.0,502.0,509.0,509.0,509.0,509.0,510.0,510.0,476.0,476.0,476.0,478.0,478.0,478.0,478.0,477.0,477.0,477.0,477.0,481.0,481.0,481.0,489.0,489.0,489.0,489.0,503.0,503.0,505.73333333333335,501.55555555555554,488.6222222222222,512.0,510.0,503.0
0,518.0,520.0,512.0,44.0,27.0,46.0,495.0,502.0,477.0,499.0,499.0,499.0,509.0,509.0,509.0,509.0,512.0,512.0,512.0,511.0,511.0,511.0,511.0,495.0,495.0,495.0,518.0,518.0,518.0,502.0,502.0,502.0,503.0,503.0,503.0,503.0,502.0,502.0,502.0,509.0,509.0,509.0,509.0,510.0,510.0,510.0,520.0,520.0,520.0,478.0,478.0,478.0,477.0,477.0,477.0,477.0,481.0,481.0,481.0,489.0,489.0,489.0,489.0,503.0,503.0,503.0,512.0,512.0,512.0,505.97777777777776,502.73333333333335,487.35555555555555,518.0,520.0,512.0
0,506.0,525.0,520.0,44.0,32.0,45.0,495.0,502.0,477.0,509.0,509.0,509.0,512.0,512.0,512.0,511.0,511.0,511.0,511.0,495.0,495.0,495.0,518.0,518.0,518.0,518.0,518.0,506.0,506.0,503.0,503.0,503.0,502.0,502.0,502.0,509.0,509.0,509.0,509.0,510.0,510.0,510.0,520.0,520.0,520.0,520.0,520.0,525.0,525.0,477.0,477.0,477.0,481.0,481.0,481.0,489.0,489.0,489.0,489.0,503.0,503.0,503.0,512.0,512.0,512.0,512.0,512.0,520.0,520.0,506.06666666666666,504.7111111111111,487.77777777777777,518.0,525.0,520.0
0,524.0,528.0,535.0,44.0,35.0,60.0,495.0,502.0,481.0,512.0,512.0,511.0,511.0,511.0,511.0,495.0,495.0,495.0,518.0,518.0,518.0,518.0,518.0,506.0,506.0,506.0,506.0,506.0,524.0,502.0,502.0,509.0,509.0,509.0,509.0,510.0,510.0,510.0,520.0,520.0,520.0,520.0,520.0,525.0,525.0,525.0,525.0,525.0,528.0,481.0,481.0,489.0,489.0,489.0,489.0,503.0,503.0,503.0,512.0,512.0,512.0,512.0,512.0,520.0,520.0,520.0,520.0,520.0,535.0,506.97777777777776,507.02222222222224,490.44444444444446,524.0,528.0,535.0
0,503.0,522.0,546.0,44.0,35.0,71.0,495.0,509.0,489.0,511.0,511.0,495.0,495.0,495.0,518.0,518.0,518.0,518.0,518.0,506.0,506.0,506.0,506.0,506.0,524.0,524.0,524.0,503.0,503.0,509.0,509.0,510.0,510.0,510.0,520.0,520.0,520.0,520.0,520.0,525.0,525.0,525.0,525.0,525.0,528.0,528.0,528.0,522.0,522.0,489.0,489.0,503.0,503.0,503.0,512.0,512.0,512.0,512.0,512.0,520.0,520.0,520.0,520.0,520.0,535.0,535.0,535.0,546.0,546.0,509.1777777777778,509.1777777777778,495.6222222222222,524.0,528.0,546.0
0,507.0,519.0,549.0,29.0,35.0,73.0,503.0,519.0,512.0,518.0,518.0,518.0,518.0,518.0,506.0,506.0,506.0,506.0,506.0,524.0,524.0,524.0,503.0,503.0,503.0,503.0,507.0,507.0,507.0,520.0,520.0,520.0,520.0,520.0,525.0,525.0,525.0,525.0,525.0,528.0,528.0,528.0,522.0,522.0,522.0,522.0,519.0,519.0,519.0,512.0,512.0,512.0,512.0,512.0,520.0,520.0,520.0,520.0,520.0,535.0,535.0,535.0,546.0,546.0,546.0,546.0,549.0,549.0,549.0,507.4222222222222,511.4,503.6,524.0,528.0,549.0
0,514.0,519.0,554.0,29.0,31.0,78.0,503.0,519.0,512.0,518.0,506.0,506.0,506.0,506.0,506.0,524.0,524.0,524.0,503.0,503.0,503.0,503.0,507.0,507.0,507.0,507.0,507.0,507.0,514.0,520.0,525.0,525.0,525.0,525.0,525.0,528.0,528.0,528.0,522.0,522.0,522.0,522.0,519.0,519.0,519.0,519.0,519.0,519.0,519.0,512.0,520.0,520.0,520.0,520.0,520.0,535.0,535.0,535.0,546.0,546.0,546.0,546.0,549.0,549.0,549.0,549.0,549.0,549.0,554.0,508.3333333333333,513.6222222222223,510.06666666666666,524.0,528.0,554.0
0,511.0,512.0,552.0,29.0,26.0,77.0,503.0,512.0,535.0,524.0,524.0,524.0,503.0,503.0,503.0,503.0,507.0,507.0,507.0,507.0,507.0,507.0,514.0,514.0,514.0,514.0,514.0,511.0,511.0,528.0,528.0,528.0,522.0,522.0,522.0,522.0,519.0,519.0,519.0,519.0,519.0,519.0,519.0,519.0,519.0,519.0,519.0,512.0,512.0,535.0,535.0,535.0,546.0,546.0,546.0,546.0,549.0,549.0,549.0,549.0,549.0,549.0,554.0,554.0,554.0,554.0,554.0,552.0,552.0,509.73333333333335,515.9111111111112,520.2444444444444,524.0,528.0,554.0
0,570.0,504.0,564.0,75.0,26.0,87.0,503.0,504.0,546.0,503.0,503.0,503.0,507.0,507.0,507.0,507.0,507.0,507.0,514.0,514.0,514.0,514.0,514.0,511.0,511.0,511.0,511.0,511.0,570.0,522.0,522.0,522.0,519.0,519.0,519.0,519.0,519.0,519.0,519.0,519.0,519.0,519.0,519.0,512.0,512.0,512.0,512.0,512.0,504.0,546.0,546.0,546.0,549.0,549.0,549.0,549.0,549.0,549.0,554.0,554.0,554.0,554.0,554.0,552.0,552.0,552.0,552.0,552.0,564.0,511.44444444444446,516.5555555555555,527.1555555555556,570.0,522.0,564.0
0,504.0,502.0,574.0,75.0,26.0,85.0,504.0,502.0,549.0,507.0,507.0,507.0,514.0,514.0,514.0,514.0,514.0,511.0,511.0,511.0,511.0,511.0,570.0,570.0,570.0,570.0,570.0,504.0,504.0,519.0,519.0,519.0,519.0,519.0,519.0,519.0,519.0,512.0,512.0,512.0,512.0,512.0,504.0,504.0,504.0,504.0,504.0,502.0,502.0,549.0,549.0,549.0,554.0,554.0,554.0,554.0,554.0,552.0,552.0,552.0,552.0,552.0,564.0,564.0,564.0,564.0,564.0,574.0,574.0,516.3555555555556,516.4,538.4,570.0,519.0,574.0
0,502.0,498.0,584.0,68.0,30.0,72.0,502.0,498.0,552.0,514.0,514.0,514.0,511.0,511.0,511.0,511.0,511.0,570.0,570.0,570.0,570.0,570.0,504.0,504.0,504.0,504.0,504.0,502.0,502.0,519.0,519.0,519.0,512.0,512.0,512.0,512.0,512.0,504.0,504.0,504.0,504.0,504.0,502.0,502.0,502.0,502.0,502.0,498.0,498.0,554.0,554.0,554.0,552.0,552.0,552.0,552.0,552.0,564.0,564.0,564.0,564.0,564.0,574.0,574.0,574.0,574.0,574.0,584.0,584.0,516.5555555555555,515.3777777777777,547.3555555555556,570.0,519.0,584.0
0,502.0,498.0,584.0,68.0,30.0,72.0,502.0,498.0,552.0,514.0,514.0,511.0,511.0,511.0,511.0,511.0,570.0,570.0,570.0,570.0,570.0,504.0,504.0,504.0,504.0,504.0,502.0,502.0,502.0,519.0,519.0,512.0,512.0,512.0,512.0,512.0,504.0,504.0,504.0,504.0,504.0,502.0,502.0,502.0,502.0,502.0,498.0,498.0,498.0,554.0,554.0,552.0,552.0,552.0,552.0,552.0,564.0,564.0,564.0,564.0,564.0,574.0,574.0,574.0,574.0,574.0,584.0,584.0,584.0,516.2,514.8888888888889,548.9555555555555,570.0,519.0,584.0
0,513.0,498.0,609.0,68.0,30.0,100.0,502.0,498.0,552.0,511.0,570.0,570.0,570.0,570.0,570.0,504.0,504.0,504.0,504.0,504.0,502.0,502.0,502.0,502.0,502.0,502.0,502.0,513.0,513.0,512.0,504.0,504.0,504.0,504.0,504.0,502.0,502.0,502.0,502.0,502.0,498.0,498.0,498.0,498.0,498.0,498.0,498.0,498.0,498.0,552.0,564.0,564.0,564.0,564.0,564.0,574.0,574.0,574.0,574.0,574.0,584.0,584.0,584.0,620.0,620.0,620.0,620.0,609.0,609.0,515.0888888888888,511.73333333333335,562.5111111111111,570.0,512.0,620.0
0,504.0,491.0,599.0,68.0,37.0,85.0,502.0,491.0,564.0,570.0,570.0,504.0,504.0,504.0,504.0,504.0,502.0,502.0,502.0,502.0,502.0,502.0,502.0,513.0,513.0,513.0,513.0,513.0,504.0,504.0,504.0,502.0,502.0,502.0,502.0,502.0,498.0,498.0,498.0,498.0,498.0,498.0,498.0,498.0,498.0,498.0,498.0,498.0,491.0,564.0,564.0,574.0,574.0,574.0,574.0,574.0,584.0,584.0,584.0,620.0,620.0,620.0,620.0,609.0,609.0,609.0,609.0,609.0,599.0,515.1111111111111,509.1111111111111,569.8666666666667,570.0,504.0,620.0
0,523.0,497.0,558.0,68.0,31.0,74.0,502.0,491.0,558.0,504.0,504.0,502.0,502.0,502.0,502.0,502.0,502.0,502.0,513.0,513.0,513.0,513.0,504.0,504.0,504.0,504.0,523.0,523.0,523.0,502.0,502.0,498.0,498.0,498.0,498.0,498.0,498.0,498.0,498.0,498.0,498.0,498.0,491.0,491.0,491.0,491.0,497.0,497.0,497.0,574.0,574.0,584.0,584.0,584.0,620.0,620.0,620.0,620.0,609.0,609.0,609.0,609.0,599.0,599.0,599.0,599.0,558.0,558.0,558.0,515.1333333333333,505.6666666666667,574.4222222222222,523.0,502.0,620.0
0,498.0,496.0,621.0,72.0,28.0,72.0,498.0,491.0,558.0,502.0,502.0,502.0,502.0,513.0,513.0,513.0,513.0,513.0,504.0,504.0,504.0,504.0,523.0,523.0,523.0,523.0,523.0,498.0,498.0,498.0,498.0,498.0,498.0,498.0,498.0,498.0,498.0,498.0,491.0,491.0,491.0,491.0,497.0,497.0,497.0,497.0,497.0,496.0,496.0,620.0,620.0,620.0,620.0,609.0,609.0,609.0,609.0,609.0,599.0,599.0,599.0,599.0,558.0,558.0,558.0,558.0,558.0,621.0,621.0,515.8888888888889,503.1111111111111,578.2888888888889,523.0,498.0,621.0
0,505.0,503.0,780.0,72.0,28.0,228.0,498.0,491.0,558.0,513.0,513.0,513.0,513.0,504.0,504.0,504.0,504.0,523.0,523.0,523.0,523.0,523.0,498.0,498.0,498.0,498.0,498.0,505.0,505.0,498.0,498.0,498.0,498.0,491.0,491.0,491.0,491.0,497.0,497.0,497.0,497.0,497.0,496.0,496.0,496.0,496.0,496.0,503.0,503.0,609.0,609.0,609.0,609.0,599.0,599.0,599.0,599.0,558.0,558.0,558.0,558.0,558.0,621.0,621.0,621.0,621.0,621.0,780.0,780.0,514.7333333333333,500.8666666666667,593.0222222222222,523.0,503.0,780.0
0,496.0,507.0,616.0,74.0,21.0,228.0,496.0,491.0,558.0,513.0,504.0,504.0,504.0,504.0,523.0,523.0,523.0,523.0,523.0,498.0,498.0,498.0,498.0,498.0,505.0,505.0,505.0,496.0,496.0,498.0,491.0,491.0,491.0,491.0,497.0,497.0,497.0,497.0,497.0,496.0,496.0,496.0,496.0,496.0,503.0,503.0,503.0,507.0,507.0,609.0,599.0,599.0,599.0,599.0,558.0,558.0,558.0,558.0,558.0,621.0,621.0,621.0,621.0,621.0,780.0,780.0,780.0,616.0,616.0,513.8,500.1333333333333,600.8444444444444,523.0,507.0,780.0
