,emg_0,emg_1,emg_2,emg_med_0,emg_med_1,emg_med_2,emg_max_0,emg_max_1,emg_max_2,emg_prev_0_0,emg_prev_0_1,emg_prev_0_2,emg_prev_0_3,emg_prev_0_4,emg_prev_0_5,emg_prev_0_6,emg_prev_0_7,emg_prev_0_8,emg_prev_0_9,emg_prev_0_10,emg_prev_0_11,emg_prev_0_12,emg_prev_0_13,emg_prev_0_14,emg_prev_0_15,emg_prev_0_16,emg_prev_0_17,emg_prev_0_18,emg_prev_0_19,emg_prev_1_0,emg_prev_1_1,emg_prev_1_2,emg_prev_1_3,emg_prev_1_4,emg_prev_1_5,emg_prev_1_6,emg_prev_1_7,emg_prev_1_8,emg_prev_1_9,emg_prev_1_10,emg_prev_1_11,emg_prev_1_12,emg_prev_1_13,emg_prev_1_14,emg_prev_1_15,emg_prev_1_16,emg_prev_1_17,emg_prev_1_18,emg_prev_1_19,emg_prev_2_0,emg_prev_2_1,emg_prev_2_2,emg_prev_2_3,emg_prev_2_4,emg_prev_2_5,emg_prev_2_6,emg_prev_2_7,emg_prev_2_8,emg_prev_2_9,emg_prev_2_10,emg_prev_2_11,emg_prev_2_12,emg_prev_2_13,emg_prev_2_14,emg_prev_2_15,emg_prev_2_16,emg_prev_2_17,emg_prev_2_18,emg_prev_2_19,emg_ampl_0,emg_ampl_1,emg_ampl_2,emg_min_0,emg_min_1,emg_min_2
0,0.0,0.0,0.0,0.0,0.0,0.0,0.0,0.0,0.0,0.0,0.0,0.0,0.0,0.0,0.0,0.0,0.0,0.0,0.0,0.0,0.0,0.0,0.0,0.0,0.0,0.0,0.0,0.0,0.0,0.0,0.0,0.0,0.0,0.0,0.0,0.0,0.0,0.0,0.0,0.0,0.0,0.0,0.0,0.0,0.0,0.0,0.0,0.0,0.0,0.0,0.0,0.0,0.0,0.0,0.0,0.0,0.0,0.0,0.0,0.0,0.0,0.0,0.0,0.0,0.0,0.0,0.0,0.0,0.0,0.0,0.0,0.0,0.0,0.0,0.0
0,507.0,506.0,400.0,508.8,499.24444444444447,546.8,513.0,506.0,633.0,509.0,509.0,509.0,509.0,509.0,509.0,513.0,513.0,513.0,513.0,506.0,506.0,506.0,506.0,506.0,507.0,507.0,507.0,507.0,507.0,501.0,501.0,501.0,501.0,501.0,501.0,485.0,485.0,485.0,485.0,493.0,493.0,493.0,493.0,493.0,506.0,506.0,506.0,506.0,506.0,559.0,559.0,559.0,559.0,559.0,559.0,633.0,633.0,633.0,633.0,549.0,549.0,549.0,549.0,549.0,400.0,400.0,400.0,400.0,400.0,7.0,21.0,233.0,506.0,485.0,400.0
0,515.0,515.0,356.0,508.93333333333334,499.68888888888887,530.4666666666667,515.0,515.0,633.0,509.0,509.0,509.0,513.0,513.0,513.0,513.0,506.0,506.0,506.0,506.0,507.0,507.0,507.0,507.0,507.0,509.0,509.0,515.0,515.0,501.0,501.0,501.0,485.0,485.0,485.0,485.0,493.0,493.0,493.0,493.0,506.0,506.0,506.0,506.0,506.0,504.0,504.0,515.0,515.0,559.0,559.0,559.0,633.0,633.0,633.0,633.0,549.0,549.0,549.0,549.0,400.0,400.0,400.0,400.0,400.0,293.0,293.0,356.0,356.0,9.0,30.0,340.0,506.0,485.0,293.0
0,515.0,515.0,356.0,509.46666666666664,500.93333333333334,512.4222222222222,515.0,515.0,633.0,513.0,513.0,513.0,506.0,506.0,506.0,506.0,506.0,507.0,507.0,507.0,507.0,507.0,509.0,509.0,515.0,515.0,515.0,515.0,515.0,485.0,485.0,485.0,493.0,493.0,493.0,493.0,493.0,506.0,506.0,506.0,506.0,506.0,504.0,504.0,515.0,515.0,515.0,515.0,524.0,633.0,633.0,633.0,549.0,549.0,549.0,549.0,549.0,400.0,400.0,400.0,400.0,400.0,293.0,293.0,356.0,356.0,356.0,356.0,428.0,9.0,30.0,340.0,506.0,485.0,293.0
0,499.0,533.0,506.0,509.4222222222222,503.8888888888889,501.3333333333333,515.0,533.0,549.0,506.0,506.0,506.0,507.0,507.0,507.0,507.0,507.0,509.0,509.0,515.0,515.0,515.0,515.0,515.0,515.0,515.0,515.0,499.0,499.0,493.0,493.0,493.0,506.0,506.0,506.0,506.0,506.0,504.0,504.0,515.0,515.0,515.0,515.0,515.0,524.0,524.0,524.0,533.0,533.0,549.0,549.0,549.0,400.0,400.0,400.0,400.0,400.0,293.0,293.0,356.0,356.0,356.0,356.0,356.0,428.0,428.0,428.0,506.0,506.0,16.0,48.0,340.0,499.0,493.0,293.0
0,518.0,541.0,499.0,509.3777777777778,507.0888888888889,496.31111111111113,518.0,541.0,506.0,507.0,507.0,507.0,507.0,509.0,509.0,515.0,515.0,515.0,515.0,515.0,515.0,515.0,499.0,499.0,499.0,499.0,518.0,518.0,518.0,506.0,506.0,506.0,506.0,504.0,504.0,515.0,515.0,515.0,515.0,515.0,524.0,524.0,533.0,533.0,533.0,533.0,541.0,541.0,541.0,400.0,400.0,400.0,400.0,293.0,293.0,356.0,356.0,356.0,356.0,356.0,428.0,428.0,506.0,506.0,506.0,506.0,499.0,499.0,499.0,19.0,56.0,340.0,499.0,504.0,293.0
0,505.0,549.0,499.0,509.8888888888889,510.8222222222222,490.97777777777776,518.0,549.0,506.0,509.0,509.0,515.0,515.0,515.0,515.0,515.0,515.0,515.0,515.0,499.0,499.0,499.0,499.0,518.0,518.0,518.0,518.0,518.0,505.0,504.0,504.0,515.0,515.0,515.0,515.0,515.0,524.0,524.0,524.0,533.0,533.0,533.0,533.0,541.0,541.0,541.0,541.0,541.0,549.0,293.0,293.0,356.0,356.0,356.0,356.0,356.0,428.0,428.0,428.0,506.0,506.0,506.0,506.0,499.0,499.0,499.0,499.0,499.0,499.0,19.0,64.0,340.0,499.0,504.0,293.0
0,510.0,548.0,513.0,509.64444444444445,515.0666666666667,485.9555555555556,518.0,549.0,513.0,515.0,515.0,515.0,515.0,515.0,515.0,499.0,499.0,499.0,499.0,518.0,518.0,518.0,518.0,518.0,505.0,505.0,505.0,505.0,510.0,515.0,515.0,515.0,524.0,524.0,524.0,533.0,533.0,533.0,533.0,541.0,541.0,541.0,541.0,541.0,549.0,549.0,549.0,549.0,548.0,356.0,356.0,356.0,428.0,428.0,428.0,506.0,506.0,506.0,506.0,499.0,499.0,499.0,499.0,499.0,499.0,499.0,499.0,499.0,513.0,19.0,64.0,340.0,499.0,515.0,356.0
0,518.0,546.0,540.0,510.0888888888889,519.1555555555556,483.06666666666666,518.0,549.0,540.0,515.0,515.0,499.0,499.0,499.0,499.0,518.0,518.0,518.0,518.0,518.0,505.0,505.0,505.0,505.0,510.0,510.0,510.0,518.0,518.0,524.0,524.0,533.0,533.0,533.0,533.0,541.0,541.0,541.0,541.0,541.0,549.0,549.0,549.0,549.0,548.0,548.0,548.0,546.0,546.0,428.0,428.0,506.0,506.0,506.0,506.0,499.0,499.0,499.0,499.0,499.0,499.0,499.0,499.0,499.0,513.0,513.0,513.0,540.0,540.0,19.0,64.0,340.0,499.0,524.0,428.0
0,512.0,537.0,588.0,510.64444444444445,524.4666666666667,479.8,518.0,549.0,588.0,499.0,518.0,518.0,518.0,518.0,518.0,505.0,505.0,505.0,505.0,510.0,510.0,510.0,518.0,518.0,518.0,518.0,518.0,512.0,512.0,533.0,541.0,541.0,541.0,541.0,541.0,549.0,549.0,549.0,549.0,548.0,548.0,548.0,546.0,546.0,546.0,546.0,546.0,537.0,537.0,506.0,499.0,499.0,499.0,499.0,499.0,499.0,499.0,499.0,499.0,513.0,513.0,513.0,540.0,540.0,540.0,540.0,540.0,588.0,588.0,19.0,64.0,340.0,499.0,533.0,499.0
0,512.0,537.0,588.0,510.73333333333335,527.7555555555556,478.6666666666667,518.0,549.0,588.0,518.0,518.0,518.0,505.0,505.0,505.0,505.0,510.0,510.0,510.0,518.0,518.0,518.0,518.0,518.0,512.0,512.0,512.0,512.0,512.0,541.0,541.0,541.0,549.0,549.0,549.0,549.0,548.0,548.0,548.0,546.0,546.0,546.0,546.0,546.0,537.0,537.0,537.0,537.0,537.0,499.0,499.0,499.0,499.0,499.0,499.0,499.0,513.0,513.0,513.0,540.0,540.0,540.0,540.0,540.0,588.0,588.0,588.0,588.0,588.0,19.0,56.0,295.0,505.0,537.0,499.0
0,508.0,516.0,621.0,511.31111111111113,531.0,482.46666666666664,518.0,549.0,621.0,505.0,505.0,505.0,510.0,510.0,510.0,518.0,518.0,518.0,518.0,518.0,512.0,512.0,512.0,512.0,512.0,514.0,514.0,514.0,508.0,549.0,549.0,549.0,548.0,548.0,548.0,546.0,546.0,546.0,546.0,546.0,537.0,537.0,537.0,537.0,537.0,534.0,534.0,534.0,516.0,499.0,499.0,499.0,513.0,513.0,513.0,540.0,540.0,540.0,540.0,540.0,588.0,588.0,588.0,588.0,588.0,582.0,582.0,582.0,621.0,19.0,45.0,328.0,505.0,516.0,499.0
0,508.0,509.0,556.0,511.3777777777778,531.5111111111111,495.75555555555553,518.0,548.0,621.0,510.0,510.0,510.0,518.0,518.0,518.0,518.0,518.0,512.0,512.0,512.0,512.0,512.0,514.0,514.0,514.0,508.0,508.0,508.0,508.0,548.0,548.0,548.0,546.0,546.0,546.0,546.0,546.0,537.0,537.0,537.0,537.0,537.0,534.0,534.0,534.0,516.0,516.0,516.0,509.0,513.0,513.0,513.0,540.0,540.0,540.0,540.0,540.0,588.0,588.0,588.0,588.0,588.0,582.0,582.0,582.0,621.0,621.0,621.0,556.0,19.0,45.0,328.0,508.0,509.0,513.0
0,507.0,499.0,504.0,511.35555555555555,531.6444444444444,513.2222222222222,518.0,546.0,621.0,518.0,518.0,518.0,518.0,512.0,512.0,512.0,512.0,512.0,514.0,514.0,514.0,508.0,508.0,508.0,508.0,508.0,508.0,508.0,507.0,546.0,546.0,546.0,546.0,537.0,537.0,537.0,537.0,537.0,534.0,534.0,534.0,516.0,516.0,516.0,509.0,509.0,509.0,509.0,499.0,540.0,540.0,540.0,540.0,588.0,588.0,588.0,588.0,588.0,582.0,582.0,582.0,621.0,621.0,621.0,556.0,556.0,556.0,556.0,504.0,19.0,50.0,265.0,507.0,499.0,504.0
0,507.0,499.0,504.0,510.64444444444445,530.2222222222222,526.3777777777777,514.0,537.0,621.0,512.0,512.0,512.0,512.0,512.0,514.0,514.0,514.0,508.0,508.0,508.0,508.0,508.0,508.0,508.0,507.0,507.0,507.0,507.0,507.0,537.0,537.0,537.0,537.0,537.0,534.0,534.0,534.0,516.0,516.0,516.0,509.0,509.0,509.0,509.0,499.0,499.0,499.0,499.0,499.0,588.0,588.0,588.0,588.0,588.0,582.0,582.0,582.0,621.0,621.0,621.0,556.0,556.0,556.0,556.0,504.0,504.0,504.0,504.0,504.0,19.0,50.0,265.0,507.0,499.0,504.0
0,504.0,476.0,472.0,509.6222222222222,526.6888888888889,529.7111111111111,514.0,537.0,621.0,512.0,514.0,514.0,514.0,508.0,508.0,508.0,508.0,508.0,508.0,508.0,507.0,507.0,507.0,507.0,507.0,503.0,503.0,504.0,504.0,537.0,534.0,534.0,534.0,516.0,516.0,516.0,509.0,509.0,509.0,509.0,499.0,499.0,499.0,499.0,499.0,488.0,488.0,476.0,476.0,588.0,582.0,582.0,582.0,621.0,621.0,621.0,556.0,556.0,556.0,556.0,504.0,504.0,504.0,504.0,504.0,423.0,423.0,472.0,472.0,19.0,73.0,198.0,503.0,476.0,423.0
0,504.0,469.0,456.0,510.06666666666666,521.4666666666667,526.3333333333334,508.0,516.0,621.0,508.0,508.0,508.0,508.0,508.0,508.0,508.0,507.0,507.0,507.0,507.0,507.0,503.0,503.0,504.0,504.0,504.0,504.0,504.0,504.0,516.0,516.0,516.0,509.0,509.0,509.0,509.0,499.0,499.0,499.0,499.0,499.0,488.0,488.0,476.0,476.0,476.0,476.0,476.0,469.0,621.0,621.0,621.0,556.0,556.0,556.0,556.0,504.0,504.0,504.0,504.0,504.0,423.0,423.0,472.0,472.0,472.0,472.0,472.0,456.0,15.0,80.0,198.0,503.0,469.0,423.0
0,501.0,464.0,508.0,508.3777777777778,513.2444444444444,523.8666666666667,508.0,509.0,556.0,508.0,508.0,507.0,507.0,507.0,507.0,507.0,503.0,503.0,504.0,504.0,504.0,504.0,504.0,504.0,504.0,504.0,504.0,501.0,501.0,509.0,509.0,499.0,499.0,499.0,499.0,499.0,488.0,488.0,476.0,476.0,476.0,476.0,476.0,469.0,469.0,469.0,469.0,464.0,464.0,556.0,556.0,504.0,504.0,504.0,504.0,504.0,423.0,423.0,472.0,472.0,472.0,472.0,472.0,456.0,456.0,456.0,456.0,508.0,508.0,17.0,85.0,198.0,501.0,464.0,423.0
0,501.0,464.0,508.0,508.1111111111111,507.5777777777778,524.4666666666667,507.0,499.0,508.0,507.0,507.0,507.0,507.0,503.0,503.0,504.0,504.0,504.0,504.0,504.0,504.0,504.0,504.0,504.0,501.0,501.0,501.0,501.0,501.0,499.0,499.0,499.0,499.0,488.0,488.0,476.0,476.0,476.0,476.0,476.0,469.0,469.0,469.0,469.0,464.0,464.0,464.0,464.0,464.0,504.0,504.0,504.0,504.0,423.0,423.0,472.0,472.0,472.0,472.0,472.0,456.0,456.0,456.0,456.0,508.0,508.0,508.0,508.0,508.0,17.0,85.0,198.0,501.0,464.0,423.0
0,504.0,469.0,534.0,507.31111111111113,498.4888888888889,525.4444444444445,504.0,488.0,534.0,503.0,504.0,504.0,504.0,504.0,504.0,504.0,504.0,504.0,504.0,501.0,501.0,501.0,501.0,501.0,503.0,503.0,503.0,504.0,504.0,488.0,476.0,476.0,476.0,476.0,476.0,469.0,469.0,469.0,469.0,464.0,464.0,464.0,464.0,464.0,464.0,464.0,464.0,469.0,469.0,423.0,472.0,472.0,472.0,472.0,472.0,456.0,456.0,456.0,456.0,508.0,508.0,508.0,508.0,508.0,518.0,518.0,518.0,534.0,534.0,17.0,82.0,198.0,501.0,464.0,423.0
0,506.0,471.0,535.0,505.97777777777776,490.22222222222223,523.7555555555556,506.0,476.0,535.0,504.0,504.0,504.0,504.0,504.0,501.0,501.0,501.0,501.0,501.0,503.0,503.0,503.0,504.0,504.0,504.0,504.0,504.0,506.0,506.0,476.0,469.0,469.0,469.0,469.0,464.0,464.0,464.0,464.0,464.0,464.0,464.0,464.0,469.0,469.0,469.0,469.0,469.0,471.0,471.0,472.0,456.0,456.0,456.0,456.0,508.0,508.0,508.0,508.0,508.0,518.0,518.0,518.0,534.0,534.0,534.0,534.0,534.0,535.0,535.0,13.0,73.0,198.0,501.0,464.0,456.0
0,505.0,481.0,564.0,505.22222222222223,483.4,519.2888888888889,506.0,481.0,564.0,501.0,501.0,501.0,501.0,501.0,503.0,503.0,503.0,504.0,504.0,504.0,504.0,504.0,506.0,506.0,506.0,506.0,506.0,505.0,505.0,464.0,464.0,464.0,464.0,464.0,464.0,464.0,464.0,469.0,469.0,469.0,469.0,469.0,471.0,471.0,471.0,471.0,471.0,481.0,481.0,508.0,508.0,508.0,508.0,508.0,518.0,518.0,518.0,534.0,534.0,534.0,534.0,534.0,535.0,535.0,535.0,535.0,535.0,564.0,564.0,13.0,70.0,198.0,501.0,464.0,508.0
0,509.0,488.0,531.0,504.8,479.02222222222224,513.2222222222222,509.0,488.0,564.0,503.0,503.0,503.0,504.0,504.0,504.0,504.0,504.0,506.0,506.0,506.0,506.0,506.0,505.0,505.0,505.0,505.0,505.0,509.0,509.0,464.0,464.0,464.0,469.0,469.0,469.0,469.0,469.0,471.0,471.0,471.0,471.0,471.0,481.0,481.0,481.0,481.0,481.0,488.0,488.0,518.0,518.0,518.0,534.0,534.0,534.0,534.0,534.0,535.0,535.0,535.0,535.0,535.0,564.0,564.0,564.0,564.0,564.0,531.0,531.0,8.0,45.0,141.0,503.0,464.0,518.0
0,507.0,502.0,518.0,504.8888888888889,477.2888888888889,511.6222222222222,509.0,502.0,564.0,504.0,504.0,506.0,506.0,506.0,506.0,506.0,505.0,505.0,505.0,505.0,505.0,509.0,509.0,509.0,509.0,509.0,509.0,507.0,507.0,469.0,469.0,471.0,471.0,471.0,471.0,471.0,481.0,481.0,481.0,481.0,481.0,488.0,488.0,488.0,488.0,488.0,488.0,502.0,502.0,534.0,534.0,535.0,535.0,535.0,535.0,535.0,564.0,564.0,564.0,564.0,564.0,531.0,531.0,531.0,531.0,531.0,531.0,518.0,518.0,8.0,38.0,141.0,504.0,469.0,518.0
0,512.0,515.0,509.0,505.2,478.3777777777778,514.2666666666667,512.0,515.0,564.0,506.0,506.0,506.0,505.0,505.0,505.0,505.0,505.0,509.0,509.0,509.0,509.0,509.0,509.0,507.0,507.0,507.0,507.0,512.0,512.0,471.0,471.0,471.0,481.0,481.0,481.0,481.0,481.0,488.0,488.0,488.0,488.0,488.0,488.0,502.0,502.0,502.0,502.0,515.0,515.0,535.0,535.0,535.0,564.0,564.0,564.0,564.0,564.0,531.0,531.0,531.0,531.0,531.0,531.0,518.0,518.0,518.0,518.0,509.0,509.0,11.0,51.0,141.0,505.0,471.0,509.0
0,510.0,525.0,572.0,505.84444444444443,482.02222222222224,521.4444444444445,512.0,525.0,572.0,505.0,505.0,505.0,505.0,509.0,509.0,509.0,509.0,509.0,509.0,507.0,507.0,507.0,507.0,512.0,512.0,512.0,512.0,510.0,510.0,481.0,481.0,481.0,481.0,488.0,488.0,488.0,488.0,488.0,488.0,502.0,502.0,502.0,502.0,515.0,515.0,515.0,515.0,525.0,525.0,564.0,564.0,564.0,564.0,531.0,531.0,531.0,531.0,531.0,531.0,518.0,518.0,518.0,518.0,509.0,509.0,509.0,509.0,572.0,572.0,11.0,61.0,116.0,505.0,481.0,509.0
0,520.0,538.0,569.0,506.6,486.97777777777776,530.9777777777778,520.0,538.0,572.0,509.0,509.0,509.0,509.0,509.0,509.0,507.0,507.0,507.0,507.0,512.0,512.0,512.0,512.0,510.0,510.0,510.0,510.0,510.0,520.0,488.0,488.0,488.0,488.0,488.0,488.0,502.0,502.0,502.0,502.0,515.0,515.0,515.0,515.0,525.0,525.0,525.0,525.0,525.0,538.0,531.0,531.0,531.0,531.0,531.0,531.0,518.0,518.0,518.0,518.0,509.0,509.0,509.0,509.0,572.0,572.0,572.0,572.0,572.0,569.0,19.0,74.0,116.0,507.0,488.0,509.0
0,512.0,546.0,524.0,507.55555555555554,491.8666666666667,536.3555555555556,520.0,546.0,572.0,509.0,509.0,509.0,507.0,507.0,507.0,507.0,512.0,512.0,512.0,512.0,510.0,510.0,510.0,510.0,510.0,520.0,520.0,520.0,512.0,488.0,488.0,488.0,502.0,502.0,502.0,502.0,515.0,515.0,515.0,515.0,525.0,525.0,525.0,525.0,525.0,538.0,538.0,538.0,546.0,531.0,531.0,531.0,518.0,518.0,518.0,518.0,509.0,509.0,509.0,509.0,572.0,572.0,572.0,572.0,572.0,569.0,569.0,569.0,524.0,19.0,82.0,64.0,507.0,488.0,509.0
0,514.0,550.0,476.0,508.6222222222222,499.3333333333333,535.6444444444444,520.0,550.0,572.0,507.0,507.0,507.0,512.0,512.0,512.0,512.0,510.0,510.0,510.0,510.0,510.0,520.0,520.0,520.0,512.0,512.0,512.0,514.0,514.0,502.0,502.0,502.0,515.0,515.0,515.0,515.0,525.0,525.0,525.0,525.0,525.0,538.0,538.0,538.0,546.0,546.0,546.0,550.0,550.0,518.0,518.0,518.0,509.0,509.0,509.0,509.0,572.0,572.0,572.0,572.0,572.0,569.0,569.0,569.0,524.0,524.0,524.0,476.0,476.0,17.0,86.0,96.0,507.0,502.0,476.0
0,506.0,568.0,459.0,509.22222222222223,507.6666666666667,530.8,520.0,568.0,572.0,512.0,512.0,512.0,510.0,510.0,510.0,510.0,510.0,520.0,520.0,520.0,512.0,512.0,512.0,514.0,514.0,514.0,514.0,506.0,506.0,515.0,515.0,515.0,525.0,525.0,525.0,525.0,525.0,538.0,538.0,538.0,546.0,546.0,546.0,550.0,550.0,550.0,550.0,568.0,568.0,509.0,509.0,509.0,572.0,572.0,572.0,572.0,572.0,569.0,569.0,569.0,524.0,524.0,524.0,476.0,476.0,476.0,476.0,459.0,459.0,16.0,99.0,113.0,506.0,515.0,459.0
0,510.0,549.0,518.0,509.4,511.64444444444445,528.7777777777778,520.0,568.0,572.0,512.0,510.0,510.0,510.0,510.0,510.0,520.0,520.0,520.0,512.0,512.0,512.0,514.0,514.0,514.0,506.0,506.0,506.0,510.0,510.0,515.0,525.0,525.0,525.0,525.0,525.0,538.0,538.0,538.0,546.0,546.0,546.0,550.0,550.0,550.0,568.0,568.0,568.0,549.0,549.0,509.0,572.0,572.0,572.0,572.0,572.0,569.0,569.0,569.0,524.0,524.0,476.0,476.0,476.0,476.0,459.0,459.0,459.0,518.0,518.0,16.0,99.0,113.0,506.0,515.0,459.0
0,510.0,549.0,518.0,509.93333333333334,520.4,526.9333333333333,520.0,568.0,572.0,510.0,520.0,520.0,520.0,512.0,512.0,512.0,514.0,514.0,514.0,514.0,506.0,506.0,506.0,510.0,510.0,510.0,510.0,510.0,510.0,525.0,538.0,538.0,538.0,546.0,546.0,546.0,550.0,550.0,550.0,550.0,568.0,568.0,568.0,549.0,549.0,549.0,549.0,549.0,549.0,572.0,569.0,569.0,569.0,524.0,524.0,524.0,476.0,476.0,476.0,476.0,459.0,459.0,459.0,518.0,518.0,518.0,518.0,518.0,518.0,15.0,97.0,113.0,506.0,525.0,459.0
0,512.0,543.0,519.0,510.35555555555555,524.9777777777778,525.2222222222222,520.0,568.0,569.0,520.0,512.0,512.0,512.0,514.0,514.0,514.0,514.0,506.0,506.0,506.0,510.0,510.0,510.0,510.0,510.0,510.0,512.0,512.0,512.0,538.0,546.0,546.0,546.0,550.0,550.0,550.0,550.0,568.0,568.0,568.0,549.0,549.0,549.0,549.0,549.0,549.0,543.0,543.0,543.0,569.0,524.0,524.0,524.0,476.0,476.0,476.0,476.0,459.0,459.0,459.0,518.0,518.0,518.0,518.0,518.0,518.0,519.0,519.0,519.0,15.0,87.0,113.0,506.0,538.0,459.0
0,519.0,523.0,434.0,510.93333333333334,528.3111111111111,518.6,519.0,568.0,524.0,512.0,514.0,514.0,514.0,514.0,506.0,506.0,506.0,510.0,510.0,510.0,510.0,510.0,510.0,512.0,512.0,512.0,511.0,511.0,519.0,546.0,550.0,550.0,550.0,550.0,568.0,568.0,568.0,549.0,549.0,549.0,549.0,549.0,549.0,543.0,543.0,543.0,535.0,535.0,523.0,524.0,476.0,476.0,476.0,476.0,459.0,459.0,459.0,518.0,518.0,518.0,518.0,518.0,518.0,519.0,519.0,519.0,480.0,480.0,434.0,15.0,87.0,138.0,506.0,523.0,434.0
0,511.0,511.0,418.0,511.3333333333333,530.2666666666667,510.68888888888887,519.0,568.0,519.0,514.0,514.0,506.0,506.0,506.0,510.0,510.0,510.0,510.0,510.0,510.0,512.0,512.0,512.0,511.0,511.0,519.0,519.0,511.0,511.0,550.0,550.0,568.0,568.0,568.0,549.0,549.0,549.0,549.0,549.0,549.0,543.0,543.0,543.0,535.0,535.0,523.0,523.0,511.0,511.0,476.0,476.0,459.0,459.0,459.0,518.0,518.0,518.0,518.0,518.0,518.0,519.0,519.0,519.0,480.0,480.0,434.0,434.0,418.0,418.0,14.0,80.0,154.0,506.0,511.0,418.0
0,508.0,505.0,446.0,511.3333333333333,531.5333333333333,504.4,519.0,568.0,519.0,506.0,506.0,510.0,510.0,510.0,510.0,510.0,510.0,512.0,512.0,512.0,511.0,511.0,519.0,519.0,511.0,511.0,511.0,508.0,508.0,568.0,568.0,549.0,549.0,549.0,549.0,549.0,549.0,543.0,543.0,543.0,535.0,535.0,523.0,523.0,511.0,511.0,511.0,505.0,505.0,459.0,459.0,518.0,518.0,518.0,518.0,518.0,518.0,519.0,519.0,519.0,480.0,480.0,434.0,434.0,418.0,418.0,418.0,446.0,446.0,14.0,80.0,154.0,506.0,505.0,418.0
0,519.0,492.0,550.0,511.8666666666667,531.5333333333333,502.3333333333333,519.0,549.0,550.0,510.0,510.0,510.0,510.0,512.0,512.0,512.0,511.0,511.0,519.0,519.0,511.0,511.0,511.0,508.0,508.0,508.0,508.0,519.0,519.0,549.0,549.0,549.0,549.0,543.0,543.0,543.0,535.0,535.0,523.0,523.0,511.0,511.0,511.0,505.0,505.0,505.0,505.0,492.0,492.0,518.0,518.0,518.0,518.0,519.0,519.0,519.0,480.0,480.0,434.0,434.0,418.0,418.0,418.0,446.0,446.0,446.0,446.0,550.0,550.0,14.0,76.0,154.0,508.0,492.0,418.0
0,514.0,476.0,540.0,512.3777777777777,529.0666666666667,505.3333333333333,519.0,543.0,550.0,512.0,512.0,512.0,511.0,511.0,519.0,519.0,511.0,511.0,511.0,508.0,508.0,508.0,508.0,519.0,519.0,519.0,519.0,514.0,514.0,543.0,543.0,543.0,535.0,535.0,523.0,523.0,511.0,511.0,511.0,505.0,505.0,505.0,505.0,492.0,492.0,492.0,492.0,476.0,476.0,519.0,519.0,519.0,480.0,480.0,434.0,434.0,418.0,418.0,418.0,446.0,446.0,446.0,446.0,550.0,550.0,550.0,550.0,540.0,540.0,14.0,92.0,154.0,508.0,476.0,418.0
0,503.0,471.0,407.0,511.9555555555556,524.6,495.02222222222224,519.0,535.0,550.0,511.0,519.0,519.0,511.0,511.0,511.0,508.0,508.0,508.0,508.0,519.0,519.0,519.0,519.0,514.0,514.0,514.0,503.0,503.0,503.0,535.0,523.0,523.0,511.0,511.0,511.0,505.0,505.0,505.0,505.0,492.0,492.0,492.0,492.0,476.0,476.0,476.0,471.0,471.0,471.0,480.0,434.0,434.0,418.0,418.0,418.0,446.0,446.0,446.0,446.0,550.0,550.0,550.0,550.0,540.0,540.0,540.0,407.0,407.0,407.0,17.0,97.0,165.0,503.0,471.0,407.0
0,503.0,468.0,268.0,511.26666666666665,520.5777777777778,477.9111111111111,519.0,511.0,550.0,511.0,511.0,511.0,508.0,508.0,508.0,508.0,519.0,519.0,519.0,519.0,514.0,514.0,514.0,503.0,503.0,503.0,503.0,503.0,503.0,511.0,511.0,511.0,505.0,505.0,505.0,505.0,492.0,492.0,492.0,492.0,476.0,476.0,476.0,471.0,471.0,471.0,471.0,468.0,468.0,418.0,418.0,418.0,446.0,446.0,446.0,446.0,550.0,550.0,550.0,550.0,540.0,540.0,540.0,407.0,407.0,407.0,407.0,268.0,268.0,17.0,100.0,301.0,503.0,468.0,268.0
0,505.0,464.0,449.0,510.4,515.5555555555555,466.8888888888889,519.0,505.0,550.0,508.0,508.0,508.0,508.0,519.0,519.0,519.0,519.0,514.0,514.0,514.0,503.0,503.0,503.0,503.0,503.0,503.0,503.0,505.0,505.0,505.0,505.0,505.0,505.0,492.0,492.0,492.0,492.0,476.0,476.0,476.0,471.0,471.0,471.0,471.0,468.0,468.0,468.0,464.0,464.0,446.0,446.0,446.0,446.0,550.0,550.0,550.0,550.0,540.0,540.0,540.0,407.0,407.0,407.0,407.0,268.0,268.0,268.0,449.0,449.0,16.0,104.0,282.0,503.0,464.0,268.0
0,504.0,468.0,565.0,509.8666666666667,510.0888888888889,465.53333333333336,519.0,505.0,565.0,508.0,519.0,519.0,519.0,519.0,514.0,514.0,514.0,503.0,503.0,503.0,503.0,503.0,503.0,503.0,505.0,505.0,505.0,505.0,504.0,505.0,492.0,492.0,492.0,492.0,476.0,476.0,476.0,471.0,471.0,471.0,471.0,468.0,468.0,468.0,464.0,464.0,464.0,464.0,468.0,446.0,550.0,550.0,550.0,550.0,540.0,540.0,540.0,407.0,407.0,407.0,407.0,268.0,268.0,268.0,449.0,449.0,449.0,449.0,565.0,16.0,104.0,297.0,503.0,464.0,268.0
0,507.0,472.0,686.0,509.24444444444447,500.35555555555555,481.55555555555554,514.0,476.0,686.0,514.0,514.0,514.0,503.0,503.0,503.0,503.0,503.0,503.0,503.0,505.0,505.0,505.0,505.0,504.0,504.0,504.0,504.0,507.0,507.0,476.0,476.0,476.0,471.0,471.0,471.0,471.0,468.0,468.0,468.0,464.0,464.0,464.0,464.0,468.0,468.0,468.0,468.0,472.0,472.0,540.0,540.0,540.0,407.0,407.0,407.0,407.0,268.0,268.0,268.0,449.0,449.0,449.0,449.0,565.0,565.0,565.0,565.0,686.0,686.0,16.0,104.0,418.0,503.0,464.0,268.0
0,510.0,477.0,647.0,509.2,493.31111111111113,496.06666666666666,510.0,477.0,686.0,503.0,503.0,503.0,503.0,503.0,503.0,505.0,505.0,505.0,505.0,504.0,504.0,504.0,504.0,507.0,507.0,507.0,507.0,510.0,510.0,471.0,471.0,471.0,468.0,468.0,468.0,464.0,464.0,464.0,464.0,468.0,468.0,468.0,468.0,472.0,472.0,472.0,472.0,477.0,477.0,407.0,407.0,407.0,268.0,268.0,268.0,449.0,449.0,449.0,449.0,565.0,565.0,565.0,565.0,686.0,686.0,686.0,686.0,647.0,647.0,16.0,85.0,418.0,503.0,464.0,268.0
0,507.0,485.0,546.0,509.06666666666666,488.8666666666667,500.1777777777778,510.0,485.0,686.0,503.0,503.0,503.0,505.0,505.0,505.0,505.0,504.0,504.0,504.0,504.0,507.0,507.0,507.0,507.0,510.0,510.0,510.0,507.0,507.0,468.0,468.0,468.0,464.0,464.0,464.0,464.0,468.0,468.0,468.0,468.0,472.0,472.0,472.0,472.0,477.0,477.0,477.0,485.0,485.0,268.0,268.0,268.0,449.0,449.0,449.0,449.0,565.0,565.0,565.0,565.0,686.0,686.0,686.0,686.0,647.0,647.0,647.0,546.0,546.0,16.0,79.0,418.0,503.0,464.0,268.0
0,507.0,496.0,550.0,508.73333333333335,485.24444444444447,502.06666666666666,510.0,496.0,686.0,505.0,505.0,505.0,505.0,504.0,504.0,504.0,504.0,507.0,507.0,507.0,507.0,510.0,510.0,510.0,507.0,507.0,507.0,507.0,507.0,464.0,464.0,464.0,464.0,468.0,468.0,468.0,468.0,472.0,472.0,472.0,472.0,477.0,477.0,477.0,485.0,485.0,485.0,485.0,496.0,449.0,449.0,449.0,449.0,565.0,565.0,565.0,565.0,686.0,686.0,686.0,686.0,647.0,647.0,647.0,546.0,546.0,546.0,546.0,550.0,16.0,71.0,418.0,504.0,464.0,449.0
0,507.0,496.0,550.0,508.55555555555554,483.5111111111111,505.1777777777778,510.0,496.0,686.0,505.0,505.0,504.0,504.0,504.0,504.0,507.0,507.0,507.0,507.0,510.0,510.0,510.0,507.0,507.0,507.0,507.0,507.0,507.0,507.0,464.0,464.0,468.0,468.0,468.0,468.0,472.0,472.0,472.0,472.0,477.0,477.0,477.0,485.0,485.0,485.0,485.0,496.0,496.0,496.0,449.0,449.0,565.0,565.0,565.0,565.0,686.0,686.0,686.0,686.0,647.0,647.0,647.0,546.0,546.0,546.0,546.0,550.0,550.0,550.0,16.0,59.0,418.0,504.0,464.0,449.0
0,508.0,510.0,577.0,508.06666666666666,482.93333333333334,511.53333333333336,510.0,510.0,686.0,504.0,504.0,504.0,504.0,507.0,507.0,507.0,507.0,510.0,510.0,510.0,507.0,507.0,507.0,507.0,507.0,507.0,507.0,508.0,508.0,468.0,468.0,468.0,468.0,472.0,472.0,472.0,472.0,477.0,477.0,477.0,485.0,485.0,485.0,485.0,496.0,496.0,496.0,510.0,510.0,565.0,565.0,565.0,565.0,686.0,686.0,686.0,686.0,647.0,647.0,647.0,546.0,546.0,546.0,546.0,550.0,550.0,550.0,577.0,577.0,16.0,47.0,418.0,504.0,468.0,546.0
0,517.0,529.0,542.0,508.1111111111111,483.8666666666667,521.4,517.0,529.0,686.0,504.0,507.0,507.0,507.0,507.0,510.0,510.0,510.0,507.0,507.0,507.0,507.0,507.0,507.0,507.0,508.0,508.0,509.0,517.0,517.0,468.0,472.0,472.0,472.0,472.0,477.0,477.0,477.0,485.0,485.0,485.0,485.0,496.0,496.0,496.0,510.0,510.0,523.0,529.0,529.0,565.0,686.0,686.0,686.0,686.0,647.0,647.0,647.0,546.0,546.0,546.0,546.0,550.0,550.0,550.0,577.0,577.0,578.0,542.0,542.0,16.0,65.0,418.0,504.0,468.0,542.0
0,521.0,534.0,457.0,508.9555555555556,486.93333333333334,527.8666666666667,521.0,534.0,647.0,510.0,510.0,510.0,507.0,507.0,507.0,507.0,507.0,507.0,507.0,508.0,508.0,509.0,509.0,517.0,517.0,517.0,517.0,517.0,521.0,477.0,477.0,477.0,485.0,485.0,485.0,485.0,496.0,496.0,496.0,510.0,510.0,523.0,523.0,529.0,529.0,529.0,529.0,529.0,534.0,647.0,647.0,647.0,546.0,546.0,546.0,546.0,550.0,550.0,550.0,577.0,577.0,578.0,578.0,542.0,542.0,542.0,542.0,542.0,457.0,18.0,70.0,418.0,507.0,477.0,457.0
0,514.0,547.0,420.0,508.93333333333334,491.6,518.1777777777778,521.0,547.0,578.0,507.0,507.0,507.0,507.0,507.0,507.0,508.0,508.0,509.0,509.0,517.0,517.0,517.0,517.0,517.0,521.0,521.0,521.0,514.0,514.0,485.0,485.0,485.0,496.0,496.0,496.0,510.0,510.0,523.0,523.0,529.0,529.0,529.0,529.0,529.0,534.0,534.0,534.0,547.0,547.0,546.0,546.0,546.0,550.0,550.0,550.0,577.0,577.0,578.0,578.0,542.0,542.0,542.0,542.0,542.0,457.0,457.0,457.0,420.0,420.0,18.0,83.0,418.0,507.0,485.0,420.0
0,507.0,553.0,459.0,509.02222222222224,496.5777777777778,514.0,521.0,553.0,578.0,507.0,507.0,507.0,508.0,508.0,509.0,509.0,517.0,517.0,517.0,517.0,517.0,521.0,521.0,521.0,514.0,514.0,514.0,514.0,507.0,496.0,496.0,496.0,510.0,510.0,523.0,523.0,529.0,529.0,529.0,529.0,529.0,534.0,534.0,534.0,547.0,547.0,547.0,547.0,553.0,550.0,550.0,550.0,577.0,577.0,578.0,578.0,542.0,542.0,542.0,542.0,542.0,457.0,457.0,457.0,420.0,420.0,420.0,420.0,459.0,18.0,89.0,418.0,507.0,496.0,420.0
0,507.0,553.0,459.0,509.2,500.22222222222223,516.3111111111111,521.0,553.0,578.0,507.0,508.0,508.0,509.0,509.0,517.0,517.0,517.0,517.0,517.0,521.0,521.0,521.0,514.0,514.0,514.0,514.0,507.0,507.0,507.0,496.0,510.0,510.0,523.0,523.0,529.0,529.0,529.0,529.0,529.0,534.0,534.0,534.0,547.0,547.0,547.0,547.0,553.0,553.0,553.0,550.0,577.0,577.0,578.0,578.0,542.0,542.0,542.0,542.0,542.0,457.0,457.0,457.0,420.0,420.0,420.0,420.0,459.0,459.0,459.0,18.0,89.0,418.0,507.0,496.0,420.0
0,509.0,555.0,486.0,509.6,505.9555555555556,527.7555555555556,521.0,555.0,578.0,509.0,509.0,517.0,517.0,517.0,517.0,517.0,521.0,521.0,521.0,514.0,514.0,514.0,514.0,507.0,507.0,507.0,509.0,509.0,509.0,523.0,523.0,529.0,529.0,529.0,529.0,529.0,534.0,534.0,534.0,547.0,547.0,547.0,547.0,553.0,553.0,553.0,555.0,555.0,555.0,578.0,578.0,542.0,542.0,542.0,542.0,542.0,457.0,457.0,457.0,420.0,420.0,420.0,420.0,459.0,459.0,459.0,486.0,486.0,486.0,18.0,91.0,418.0,507.0,523.0,420.0
0,510.0,540.0,485.0,509.77777777777777,509.5111111111111,533.3777777777777,521.0,555.0,542.0,517.0,517.0,517.0,517.0,517.0,521.0,521.0,521.0,514.0,514.0,514.0,514.0,507.0,507.0,507.0,509.0,509.0,509.0,506.0,510.0,529.0,529.0,529.0,529.0,529.0,534.0,534.0,534.0,547.0,547.0,547.0,547.0,553.0,553.0,553.0,555.0,555.0,555.0,552.0,540.0,542.0,542.0,542.0,542.0,542.0,457.0,457.0,457.0,420.0,420.0,420.0,420.0,459.0,459.0,459.0,486.0,486.0,486.0,485.0,485.0,17.0,91.0,266.0,506.0,529.0,420.0
0,505.0,529.0,487.0,509.8888888888889,512.6444444444444,535.0222222222222,521.0,555.0,542.0,517.0,517.0,517.0,521.0,521.0,521.0,514.0,514.0,514.0,514.0,507.0,507.0,507.0,509.0,509.0,509.0,506.0,510.0,510.0,505.0,529.0,529.0,529.0,534.0,534.0,534.0,547.0,547.0,547.0,547.0,553.0,553.0,553.0,555.0,555.0,555.0,552.0,540.0,540.0,529.0,542.0,542.0,542.0,457.0,457.0,457.0,420.0,420.0,420.0,420.0,459.0,459.0,459.0,486.0,486.0,486.0,485.0,485.0,485.0,487.0,17.0,91.0,266.0,505.0,529.0,420.0
0,505.0,529.0,487.0,509.9111111111111,515.4444444444445,534.1333333333333,521.0,555.0,542.0,517.0,521.0,521.0,521.0,514.0,514.0,514.0,514.0,507.0,507.0,507.0,509.0,509.0,509.0,506.0,510.0,510.0,505.0,505.0,505.0,529.0,534.0,534.0,534.0,547.0,547.0,547.0,547.0,553.0,553.0,553.0,555.0,555.0,555.0,552.0,540.0,540.0,529.0,529.0,529.0,542.0,457.0,457.0,457.0,420.0,420.0,420.0,420.0,459.0,459.0,459.0,486.0,486.0,486.0,485.0,485.0,485.0,487.0,487.0,487.0,17.0,87.0,266.0,505.0,529.0,420.0
0,510.0,512.0,515.0,510.02222222222224,519.7555555555556,526.5555555555555,514.0,555.0,515.0,514.0,514.0,514.0,514.0,507.0,507.0,507.0,509.0,509.0,509.0,506.0,510.0,510.0,505.0,505.0,505.0,502.0,502.0,510.0,510.0,547.0,547.0,547.0,547.0,553.0,553.0,553.0,555.0,555.0,555.0,552.0,540.0,540.0,529.0,529.0,529.0,523.0,523.0,512.0,512.0,420.0,420.0,420.0,420.0,459.0,459.0,459.0,486.0,486.0,486.0,485.0,485.0,485.0,487.0,487.0,487.0,505.0,505.0,515.0,515.0,19.0,83.0,266.0,502.0,512.0,420.0
0,513.0,497.0,519.0,510.35555555555555,521.7555555555556,515.3333333333334,514.0,555.0,519.0,514.0,507.0,507.0,507.0,509.0,509.0,509.0,506.0,510.0,510.0,505.0,505.0,505.0,502.0,502.0,510.0,510.0,510.0,513.0,513.0,547.0,553.0,553.0,553.0,555.0,555.0,555.0,552.0,540.0,540.0,529.0,529.0,529.0,523.0,523.0,512.0,512.0,512.0,497.0,497.0,420.0,459.0,459.0,459.0,486.0,486.0,486.0,485.0,485.0,485.0,487.0,487.0,487.0,505.0,505.0,515.0,515.0,515.0,519.0,519.0,19.0,78.0,227.0,502.0,497.0,420.0
0,508.0,490.0,512.0,510.3333333333333,522.7777777777778,506.4888888888889,513.0,555.0,519.0,507.0,509.0,509.0,509.0,506.0,510.0,510.0,505.0,505.0,505.0,502.0,502.0,510.0,510.0,510.0,513.0,513.0,513.0,508.0,508.0,553.0,555.0,555.0,555.0,552.0,540.0,540.0,529.0,529.0,529.0,523.0,523.0,512.0,512.0,512.0,497.0,497.0,497.0,490.0,490.0,459.0,486.0,486.0,486.0,485.0,485.0,485.0,487.0,487.0,487.0,505.0,505.0,515.0,515.0,515.0,519.0,519.0,519.0,512.0,512.0,19.0,70.0,158.0,502.0,490.0,459.0
0,508.0,490.0,512.0,510.4,523.1111111111111,504.22222222222223,513.0,555.0,519.0,509.0,506.0,510.0,510.0,505.0,505.0,505.0,502.0,502.0,510.0,510.0,510.0,513.0,513.0,513.0,508.0,508.0,508.0,508.0,508.0,555.0,552.0,540.0,540.0,529.0,529.0,529.0,523.0,523.0,512.0,512.0,512.0,497.0,497.0,497.0,490.0,490.0,490.0,490.0,490.0,486.0,485.0,485.0,485.0,487.0,487.0,487.0,505.0,505.0,515.0,515.0,515.0,519.0,519.0,519.0,512.0,512.0,512.0,512.0,512.0,19.0,70.0,158.0,502.0,490.0,485.0
0,510.0,467.0,527.0,510.6222222222222,521.6222222222223,502.35555555555555,513.0,540.0,527.0,510.0,505.0,505.0,505.0,502.0,502.0,510.0,510.0,510.0,513.0,513.0,513.0,508.0,508.0,508.0,508.0,508.0,511.0,510.0,510.0,540.0,529.0,529.0,529.0,523.0,523.0,512.0,512.0,512.0,497.0,497.0,497.0,490.0,490.0,490.0,490.0,490.0,476.0,467.0,467.0,485.0,487.0,487.0,487.0,505.0,505.0,515.0,515.0,515.0,519.0,519.0,519.0,512.0,512.0,512.0,512.0,512.0,508.0,527.0,527.0,19.0,88.0,158.0,502.0,467.0,485.0
0,502.0,465.0,527.0,510.4222222222222,518.9777777777778,499.6222222222222,513.0,529.0,527.0,505.0,502.0,502.0,510.0,510.0,510.0,513.0,513.0,513.0,508.0,508.0,508.0,508.0,508.0,511.0,510.0,510.0,510.0,502.0,502.0,529.0,523.0,523.0,512.0,512.0,512.0,497.0,497.0,497.0,490.0,490.0,490.0,490.0,490.0,476.0,467.0,467.0,467.0,465.0,465.0,487.0,505.0,505.0,515.0,515.0,515.0,519.0,519.0,519.0,512.0,512.0,512.0,512.0,512.0,508.0,527.0,527.0,527.0,527.0,527.0,19.0,90.0,158.0,502.0,465.0,487.0
0,503.0,464.0,495.0,509.8222222222222,514.9333333333333,495.6,513.0,512.0,527.0,510.0,510.0,510.0,513.0,513.0,513.0,508.0,508.0,508.0,508.0,508.0,511.0,510.0,510.0,510.0,502.0,502.0,502.0,503.0,503.0,512.0,512.0,512.0,497.0,497.0,497.0,490.0,490.0,490.0,490.0,490.0,476.0,467.0,467.0,467.0,465.0,465.0,465.0,464.0,464.0,515.0,515.0,515.0,519.0,519.0,519.0,512.0,512.0,512.0,512.0,512.0,508.0,527.0,527.0,527.0,527.0,527.0,527.0,495.0,495.0,19.0,91.0,122.0,502.0,464.0,495.0
0,506.0,472.0,446.0,509.02222222222224,510.9555555555556,490.2888888888889,513.0,497.0,527.0,513.0,513.0,513.0,508.0,508.0,508.0,508.0,508.0,511.0,510.0,510.0,510.0,502.0,502.0,502.0,503.0,503.0,503.0,506.0,506.0,497.0,497.0,497.0,490.0,490.0,490.0,490.0,490.0,476.0,467.0,467.0,467.0,465.0,465.0,465.0,464.0,464.0,464.0,472.0,472.0,519.0,519.0,519.0,512.0,512.0,512.0,512.0,512.0,508.0,527.0,527.0,527.0,527.0,527.0,527.0,495.0,495.0,495.0,446.0,446.0,19.0,91.0,122.0,502.0,464.0,446.0
0,506.0,474.0,475.0,508.1111111111111,506.97777777777776,488.31111111111113,511.0,490.0,527.0,508.0,508.0,508.0,508.0,508.0,511.0,510.0,510.0,510.0,502.0,502.0,502.0,503.0,503.0,503.0,506.0,506.0,506.0,506.0,506.0,490.0,490.0,490.0,490.0,490.0,476.0,467.0,467.0,467.0,465.0,465.0,465.0,464.0,464.0,464.0,472.0,472.0,472.0,472.0,474.0,512.0,512.0,512.0,512.0,512.0,508.0,527.0,527.0,527.0,527.0,527.0,527.0,495.0,495.0,495.0,446.0,446.0,446.0,446.0,475.0,19.0,91.0,107.0,502.0,464.0,446.0
0,520.0,482.0,555.0,508.0444444444444,502.75555555555553,494.7111111111111,520.0,490.0,555.0,508.0,508.0,511.0,510.0,510.0,510.0,502.0,502.0,502.0,503.0,503.0,503.0,506.0,506.0,506.0,506.0,506.0,506.0,520.0,520.0,490.0,490.0,476.0,467.0,467.0,467.0,465.0,465.0,465.0,464.0,464.0,464.0,472.0,472.0,472.0,472.0,474.0,474.0,482.0,482.0,512.0,512.0,508.0,527.0,527.0,527.0,527.0,527.0,527.0,495.0,495.0,495.0,446.0,446.0,446.0,446.0,475.0,475.0,555.0,555.0,18.0,91.0,135.0,502.0,464.0,446.0
0,506.0,494.0,575.0,507.97777777777776,498.8222222222222,503.73333333333335,520.0,494.0,575.0,510.0,510.0,510.0,502.0,502.0,502.0,503.0,503.0,503.0,506.0,506.0,506.0,506.0,506.0,506.0,520.0,520.0,520.0,506.0,506.0,467.0,467.0,467.0,465.0,465.0,465.0,464.0,464.0,464.0,472.0,472.0,472.0,472.0,474.0,474.0,482.0,482.0,482.0,494.0,494.0,527.0,527.0,527.0,527.0,527.0,527.0,495.0,495.0,495.0,446.0,446.0,446.0,446.0,475.0,475.0,555.0,555.0,555.0,575.0,575.0,18.0,91.0,129.0,502.0,464.0,446.0
0,507.0,504.0,519.0,507.9111111111111,495.2888888888889,508.3777777777778,520.0,504.0,575.0,502.0,502.0,502.0,503.0,503.0,503.0,506.0,506.0,506.0,506.0,506.0,506.0,520.0,520.0,520.0,506.0,506.0,506.0,507.0,507.0,465.0,465.0,465.0,464.0,464.0,464.0,472.0,472.0,472.0,472.0,474.0,474.0,482.0,482.0,482.0,494.0,494.0,494.0,504.0,504.0,527.0,527.0,527.0,495.0,495.0,495.0,446.0,446.0,446.0,446.0,475.0,475.0,555.0,555.0,555.0,575.0,575.0,575.0,519.0,519.0,18.0,91.0,129.0,502.0,464.0,446.0
0,519.0,513.0,462.0,508.3777777777778,492.35555555555555,508.06666666666666,520.0,513.0,575.0,503.0,503.0,503.0,506.0,506.0,506.0,506.0,506.0,506.0,520.0,520.0,520.0,506.0,506.0,506.0,507.0,507.0,507.0,519.0,519.0,464.0,464.0,464.0,472.0,472.0,472.0,472.0,474.0,474.0,482.0,482.0,482.0,494.0,494.0,494.0,504.0,504.0,504.0,513.0,513.0,495.0,495.0,495.0,446.0,446.0,446.0,446.0,475.0,475.0,555.0,555.0,555.0,575.0,575.0,575.0,519.0,519.0,519.0,462.0,462.0,18.0,76.0,129.0,503.0,464.0,446.0
0,519.0,513.0,462.0,509.0888888888889,490.8,506.4888888888889,520.0,513.0,575.0,506.0,506.0,506.0,506.0,506.0,506.0,520.0,520.0,520.0,506.0,506.0,506.0,507.0,507.0,507.0,519.0,519.0,519.0,519.0,519.0,472.0,472.0,472.0,472.0,474.0,474.0,482.0,482.0,482.0,494.0,494.0,494.0,504.0,504.0,504.0,513.0,513.0,513.0,513.0,513.0,446.0,446.0,446.0,446.0,475.0,475.0,555.0,555.0,555.0,575.0,575.0,575.0,519.0,519.0,519.0,462.0,462.0,462.0,462.0,462.0,18.0,65.0,129.0,506.0,472.0,446.0
0,515.0,539.0,505.0,509.7111111111111,491.3333333333333,506.1111111111111,520.0,539.0,575.0,506.0,506.0,506.0,520.0,520.0,520.0,506.0,506.0,506.0,507.0,507.0,507.0,519.0,519.0,519.0,519.0,519.0,510.0,515.0,515.0,472.0,474.0,474.0,482.0,482.0,482.0,494.0,494.0,494.0,504.0,504.0,504.0,513.0,513.0,513.0,513.0,513.0,527.0,539.0,539.0,446.0,475.0,475.0,555.0,555.0,555.0,575.0,575.0,575.0,519.0,519.0,519.0,462.0,462.0,462.0,462.0,462.0,452.0,505.0,505.0,18.0,75.0,129.0,506.0,472.0,446.0
0,508.0,540.0,544.0,510.06666666666666,492.9111111111111,506.53333333333336,520.0,540.0,575.0,520.0,520.0,520.0,506.0,506.0,506.0,507.0,507.0,507.0,519.0,519.0,519.0,519.0,519.0,510.0,515.0,515.0,515.0,515.0,508.0,482.0,482.0,482.0,494.0,494.0,494.0,504.0,504.0,504.0,513.0,513.0,513.0,513.0,513.0,527.0,539.0,539.0,539.0,539.0,540.0,555.0,555.0,555.0,575.0,575.0,575.0,519.0,519.0,519.0,462.0,462.0,462.0,462.0,462.0,452.0,505.0,505.0,505.0,505.0,544.0,18.0,76.0,129.0,506.0,482.0,452.0
0,514.0,548.0,541.0,510.06666666666666,495.8,508.15555555555557,519.0,548.0,575.0,506.0,506.0,506.0,507.0,507.0,507.0,519.0,519.0,519.0,519.0,519.0,510.0,515.0,515.0,515.0,515.0,508.0,508.0,514.0,514.0,494.0,494.0,494.0,504.0,504.0,504.0,513.0,513.0,513.0,513.0,513.0,527.0,539.0,539.0,539.0,539.0,540.0,540.0,548.0,548.0,575.0,575.0,575.0,519.0,519.0,519.0,462.0,462.0,462.0,462.0,462.0,452.0,505.0,505.0,505.0,505.0,544.0,544.0,541.0,541.0,18.0,84.0,129.0,506.0,494.0,452.0
0,514.0,548.0,541.0,510.35555555555555,499.5111111111111,509.93333333333334,519.0,548.0,544.0,507.0,507.0,507.0,519.0,519.0,519.0,519.0,519.0,510.0,515.0,515.0,515.0,515.0,508.0,508.0,514.0,514.0,514.0,514.0,514.0,504.0,504.0,504.0,513.0,513.0,513.0,513.0,513.0,527.0,539.0,539.0,539.0,539.0,540.0,540.0,548.0,548.0,548.0,548.0,548.0,519.0,519.0,519.0,462.0,462.0,462.0,462.0,462.0,452.0,505.0,505.0,505.0,505.0,544.0,544.0,541.0,541.0,541.0,541.0,541.0,18.0,84.0,129.0,507.0,504.0,452.0
0,509.0,551.0,472.0,510.44444444444446,503.6,508.15555555555557,519.0,552.0,544.0,519.0,519.0,519.0,519.0,519.0,510.0,515.0,515.0,515.0,515.0,508.0,508.0,514.0,514.0,514.0,514.0,514.0,510.0,509.0,509.0,513.0,513.0,513.0,513.0,513.0,527.0,539.0,539.0,539.0,539.0,540.0,540.0,548.0,548.0,548.0,548.0,548.0,552.0,551.0,551.0,462.0,462.0,462.0,462.0,462.0,452.0,505.0,505.0,505.0,505.0,544.0,544.0,541.0,541.0,541.0,541.0,541.0,512.0,472.0,472.0,18.0,88.0,129.0,508.0,513.0,452.0
0,508.0,545.0,515.0,510.2888888888889,510.6,505.6,519.0,552.0,544.0,519.0,510.0,515.0,515.0,515.0,515.0,508.0,508.0,514.0,514.0,514.0,514.0,514.0,510.0,509.0,509.0,509.0,509.0,508.0,508.0,513.0,527.0,539.0,539.0,539.0,539.0,540.0,540.0,548.0,548.0,548.0,548.0,548.0,552.0,551.0,551.0,551.0,551.0,545.0,545.0,462.0,452.0,505.0,505.0,505.0,505.0,544.0,544.0,541.0,541.0,541.0,541.0,541.0,512.0,472.0,472.0,472.0,472.0,515.0,515.0,18.0,88.0,129.0,508.0,513.0,452.0
0,512.0,533.0,561.0,510.8666666666667,515.4,506.84444444444443,515.0,552.0,561.0,515.0,515.0,515.0,508.0,508.0,514.0,514.0,514.0,514.0,514.0,510.0,509.0,509.0,509.0,509.0,508.0,508.0,508.0,512.0,512.0,539.0,539.0,539.0,540.0,540.0,548.0,548.0,548.0,548.0,548.0,552.0,551.0,551.0,551.0,551.0,545.0,545.0,545.0,533.0,533.0,505.0,505.0,505.0,544.0,544.0,541.0,541.0,541.0,541.0,541.0,512.0,472.0,472.0,472.0,472.0,515.0,515.0,515.0,561.0,561.0,17.0,88.0,129.0,508.0,533.0,472.0
0,512.0,533.0,561.0,511.6,521.3555555555556,513.8,514.0,552.0,561.0,508.0,514.0,514.0,514.0,514.0,514.0,510.0,509.0,509.0,509.0,509.0,508.0,508.0,508.0,512.0,512.0,512.0,512.0,512.0,512.0,540.0,548.0,548.0,548.0,548.0,548.0,552.0,551.0,551.0,551.0,551.0,545.0,545.0,545.0,533.0,533.0,533.0,533.0,533.0,533.0,544.0,541.0,541.0,541.0,541.0,541.0,512.0,472.0,472.0,472.0,472.0,515.0,515.0,515.0,561.0,561.0,561.0,561.0,561.0,561.0,14.0,80.0,129.0,508.0,533.0,472.0
0,510.0,517.0,494.0,512.0888888888888,525.5777777777778,519.7333333333333,514.0,552.0,561.0,514.0,514.0,510.0,509.0,509.0,509.0,509.0,508.0,508.0,508.0,512.0,512.0,512.0,512.0,512.0,512.0,513.0,513.0,510.0,510.0,548.0,548.0,552.0,551.0,551.0,551.0,551.0,545.0,545.0,545.0,533.0,533.0,533.0,533.0,533.0,533.0,523.0,523.0,517.0,517.0,541.0,541.0,512.0,472.0,472.0,472.0,472.0,515.0,515.0,515.0,561.0,561.0,561.0,561.0,561.0,561.0,546.0,546.0,494.0,494.0,14.0,78.0,123.0,508.0,517.0,472.0
0,510.0,499.0,408.0,511.5111111111111,528.0666666666667,512.2666666666667,513.0,551.0,561.0,509.0,509.0,509.0,508.0,508.0,508.0,512.0,512.0,512.0,512.0,512.0,512.0,513.0,513.0,510.0,510.0,510.0,510.0,510.0,510.0,551.0,551.0,551.0,545.0,545.0,545.0,533.0,533.0,533.0,533.0,533.0,533.0,523.0,523.0,517.0,517.0,517.0,517.0,499.0,499.0,472.0,472.0,472.0,515.0,515.0,515.0,561.0,561.0,561.0,561.0,561.0,561.0,546.0,546.0,494.0,494.0,494.0,494.0,408.0,408.0,13.0,58.0,167.0,508.0,499.0,408.0
0,506.0,490.0,415.0,511.6,528.0,501.44444444444446,513.0,545.0,561.0,508.0,508.0,508.0,512.0,512.0,512.0,512.0,512.0,512.0,513.0,513.0,510.0,510.0,510.0,510.0,510.0,510.0,510.0,506.0,506.0,545.0,545.0,545.0,533.0,533.0,533.0,533.0,533.0,533.0,523.0,523.0,517.0,517.0,517.0,517.0,499.0,499.0,499.0,490.0,490.0,515.0,515.0,515.0,561.0,561.0,561.0,561.0,561.0,561.0,546.0,546.0,494.0,494.0,494.0,494.0,408.0,408.0,408.0,415.0,415.0,13.0,62.0,153.0,506.0,490.0,408.0
0,514.0,478.0,521.0,511.8888888888889,526.5333333333333,499.22222222222223,514.0,533.0,561.0,512.0,512.0,512.0,512.0,512.0,512.0,513.0,513.0,510.0,510.0,510.0,510.0,510.0,510.0,510.0,506.0,506.0,506.0,514.0,514.0,533.0,533.0,533.0,533.0,533.0,533.0,523.0,523.0,517.0,517.0,517.0,517.0,499.0,499.0,499.0,490.0,490.0,490.0,478.0,478.0,561.0,561.0,561.0,561.0,561.0,561.0,546.0,546.0,494.0,494.0,494.0,494.0,408.0,408.0,408.0,415.0,415.0,415.0,521.0,521.0,13.0,74.0,153.0,506.0,478.0,408.0
0,516.0,476.0,605.0,511.4222222222222,522.5555555555555,509.5111111111111,516.0,533.0,605.0,512.0,513.0,513.0,510.0,510.0,510.0,510.0,510.0,510.0,510.0,506.0,506.0,506.0,514.0,514.0,514.0,514.0,514.0,516.0,516.0,533.0,523.0,523.0,517.0,517.0,517.0,517.0,499.0,499.0,499.0,490.0,490.0,490.0,478.0,478.0,478.0,478.0,478.0,476.0,476.0,561.0,546.0,546.0,494.0,494.0,494.0,494.0,408.0,408.0,408.0,415.0,415.0,415.0,521.0,521.0,521.0,521.0,521.0,605.0,605.0,10.0,76.0,197.0,506.0,476.0,408.0
0,505.0,468.0,606.0,511.1111111111111,518.2666666666667,517.4,516.0,517.0,606.0,510.0,510.0,510.0,510.0,510.0,510.0,510.0,506.0,506.0,506.0,514.0,514.0,514.0,514.0,514.0,516.0,516.0,516.0,505.0,505.0,517.0,517.0,517.0,517.0,499.0,499.0,499.0,490.0,490.0,490.0,478.0,478.0,478.0,478.0,478.0,476.0,476.0,476.0,468.0,468.0,494.0,494.0,494.0,494.0,408.0,408.0,408.0,415.0,415.0,415.0,521.0,521.0,521.0,521.0,521.0,605.0,605.0,605.0,606.0,606.0,11.0,84.0,198.0,505.0,468.0,408.0
0,504.0,466.0,533.0,510.5777777777778,513.4666666666667,521.6444444444444,516.0,517.0,606.0,510.0,510.0,510.0,510.0,506.0,506.0,506.0,514.0,514.0,514.0,514.0,514.0,516.0,516.0,516.0,505.0,505.0,505.0,505.0,504.0,517.0,499.0,499.0,499.0,490.0,490.0,490.0,478.0,478.0,478.0,478.0,478.0,476.0,476.0,476.0,468.0,468.0,468.0,468.0,466.0,494.0,408.0,408.0,408.0,415.0,415.0,415.0,521.0,521.0,521.0,521.0,521.0,605.0,605.0,605.0,606.0,606.0,606.0,606.0,533.0,12.0,86.0,198.0,504.0,466.0,408.0
0,520.0,472.0,489.0,510.75555555555553,508.44444444444446,519.0888888888888,520.0,499.0,606.0,510.0,506.0,506.0,506.0,514.0,514.0,514.0,514.0,514.0,516.0,516.0,516.0,505.0,505.0,505.0,505.0,504.0,504.0,520.0,520.0,499.0,490.0,490.0,490.0,478.0,478.0,478.0,478.0,478.0,476.0,476.0,476.0,468.0,468.0,468.0,468.0,466.0,466.0,472.0,472.0,408.0,415.0,415.0,415.0,521.0,521.0,521.0,521.0,521.0,605.0,605.0,605.0,606.0,606.0,606.0,606.0,533.0,533.0,489.0,489.0,16.0,86.0,198.0,504.0,466.0,408.0
0,520.0,472.0,489.0,511.02222222222224,505.06666666666666,516.7777777777778,520.0,490.0,606.0,506.0,506.0,514.0,514.0,514.0,514.0,514.0,516.0,516.0,505.0,505.0,505.0,505.0,504.0,504.0,520.0,520.0,520.0,520.0,501.0,490.0,490.0,478.0,478.0,478.0,478.0,478.0,476.0,476.0,468.0,468.0,468.0,468.0,466.0,466.0,472.0,472.0,472.0,472.0,475.0,415.0,415.0,521.0,521.0,521.0,521.0,521.0,605.0,605.0,606.0,606.0,606.0,606.0,533.0,533.0,489.0,489.0,489.0,489.0,480.0,16.0,86.0,198.0,504.0,466.0,415.0
0,506.0,477.0,521.0,510.22222222222223,496.75555555555553,517.0666666666667,520.0,478.0,606.0,514.0,514.0,516.0,516.0,516.0,505.0,505.0,505.0,505.0,504.0,504.0,520.0,520.0,520.0,520.0,501.0,501.0,501.0,506.0,506.0,478.0,478.0,476.0,476.0,476.0,468.0,468.0,468.0,468.0,466.0,466.0,472.0,472.0,472.0,472.0,475.0,475.0,475.0,477.0,477.0,521.0,521.0,605.0,605.0,605.0,606.0,606.0,606.0,606.0,533.0,533.0,489.0,489.0,489.0,489.0,480.0,480.0,480.0,521.0,521.0,19.0,85.0,198.0,501.0,466.0,480.0
0,513.0,482.0,535.0,510.3777777777778,492.31111111111113,519.0444444444445,520.0,482.0,606.0,516.0,516.0,505.0,505.0,505.0,505.0,504.0,504.0,520.0,520.0,520.0,520.0,501.0,501.0,501.0,506.0,506.0,506.0,513.0,513.0,476.0,476.0,468.0,468.0,468.0,468.0,466.0,466.0,472.0,472.0,472.0,472.0,475.0,475.0,475.0,477.0,477.0,477.0,482.0,482.0,605.0,605.0,606.0,606.0,606.0,606.0,533.0,533.0,489.0,489.0,489.0,489.0,480.0,480.0,480.0,521.0,521.0,521.0,535.0,535.0,19.0,79.0,198.0,501.0,466.0,480.0
0,506.0,496.0,497.0,510.22222222222223,489.26666666666665,516.6444444444444,520.0,496.0,606.0,505.0,505.0,505.0,504.0,504.0,520.0,520.0,520.0,520.0,501.0,501.0,501.0,506.0,506.0,506.0,513.0,513.0,513.0,506.0,506.0,468.0,468.0,468.0,466.0,466.0,472.0,472.0,472.0,472.0,475.0,475.0,475.0,477.0,477.0,477.0,482.0,482.0,482.0,496.0,496.0,606.0,606.0,606.0,533.0,533.0,489.0,489.0,489.0,489.0,480.0,480.0,480.0,521.0,521.0,521.0,535.0,535.0,535.0,497.0,497.0,19.0,67.0,198.0,501.0,466.0,480.0
0,511.0,508.0,445.0,509.9111111111111,486.5111111111111,508.64444444444445,520.0,508.0,535.0,504.0,520.0,520.0,520.0,520.0,501.0,501.0,501.0,506.0,506.0,506.0,513.0,513.0,513.0,506.0,506.0,506.0,506.0,511.0,511.0,466.0,472.0,472.0,472.0,472.0,475.0,475.0,475.0,477.0,477.0,477.0,482.0,482.0,482.0,496.0,496.0,496.0,496.0,508.0,508.0,533.0,489.0,489.0,489.0,489.0,480.0,480.0,480.0,521.0,521.0,521.0,535.0,535.0,535.0,497.0,497.0,497.0,497.0,445.0,445.0,19.0,57.0,198.0,501.0,466.0,445.0
0,510.0,520.0,442.0,509.8222222222222,485.97777777777776,501.84444444444443,520.0,520.0,535.0,520.0,501.0,501.0,501.0,506.0,506.0,506.0,513.0,513.0,513.0,506.0,506.0,506.0,506.0,511.0,511.0,511.0,511.0,510.0,510.0,472.0,475.0,475.0,475.0,477.0,477.0,477.0,482.0,482.0,482.0,496.0,496.0,496.0,496.0,508.0,508.0,508.0,508.0,520.0,520.0,489.0,480.0,480.0,480.0,521.0,521.0,521.0,535.0,535.0,535.0,497.0,497.0,497.0,497.0,445.0,445.0,445.0,445.0,442.0,442.0,19.0,54.0,198.0,501.0,472.0,442.0
0,515.0,529.0,508.0,510.0444444444444,486.97777777777776,503.22222222222223,515.0,529.0,535.0,501.0,506.0,506.0,506.0,513.0,513.0,513.0,506.0,506.0,506.0,506.0,511.0,511.0,511.0,511.0,510.0,510.0,510.0,515.0,515.0,475.0,477.0,477.0,477.0,482.0,482.0,482.0,496.0,496.0,496.0,496.0,508.0,508.0,508.0,508.0,520.0,520.0,520.0,529.0,529.0,480.0,521.0,521.0,521.0,535.0,535.0,535.0,497.0,497.0,497.0,497.0,445.0,445.0,445.0,445.0,442.0,442.0,442.0,508.0,508.0,19.0,63.0,198.0,501.0,475.0,442.0
0,512.0,538.0,544.0,510.53333333333336,490.44444444444446,513.4,515.0,538.0,544.0,513.0,513.0,513.0,506.0,506.0,506.0,506.0,511.0,511.0,511.0,511.0,510.0,510.0,510.0,515.0,515.0,515.0,515.0,512.0,512.0,482.0,482.0,482.0,496.0,496.0,496.0,496.0,508.0,508.0,508.0,508.0,520.0,520.0,520.0,529.0,529.0,529.0,529.0,538.0,538.0,535.0,535.0,535.0,497.0,497.0,497.0,497.0,445.0,445.0,445.0,445.0,442.0,442.0,442.0,508.0,508.0,508.0,508.0,544.0,544.0,19.0,72.0,191.0,506.0,482.0,442.0
0,512.0,547.0,543.0,510.5777777777778,494.5777777777778,517.2444444444444,515.0,547.0,544.0,506.0,506.0,506.0,506.0,511.0,511.0,511.0,511.0,510.0,510.0,510.0,515.0,515.0,515.0,515.0,512.0,512.0,512.0,512.0,512.0,496.0,496.0,496.0,496.0,508.0,508.0,508.0,508.0,520.0,520.0,520.0,529.0,529.0,529.0,529.0,538.0,538.0,538.0,547.0,547.0,497.0,497.0,497.0,497.0,445.0,445.0,445.0,445.0,442.0,442.0,442.0,508.0,508.0,508.0,508.0,544.0,544.0,544.0,543.0,543.0,19.0,81.0,164.0,506.0,496.0,442.0
0,509.0,549.0,509.0,510.31111111111113,499.26666666666665,517.2,515.0,549.0,544.0,506.0,511.0,511.0,511.0,511.0,510.0,510.0,510.0,515.0,515.0,515.0,515.0,512.0,512.0,512.0,512.0,512.0,512.0,509.0,509.0,496.0,508.0,508.0,508.0,508.0,520.0,520.0,520.0,529.0,529.0,529.0,529.0,538.0,538.0,538.0,547.0,547.0,547.0,549.0,549.0,497.0,445.0,445.0,445.0,445.0,442.0,442.0,442.0,508.0,508.0,508.0,508.0,544.0,544.0,544.0,543.0,543.0,543.0,509.0,509.0,19.0,83.0,164.0,506.0,496.0,442.0
0,503.0,555.0,491.0,509.8,506.06666666666666,508.24444444444447,515.0,555.0,544.0,511.0,510.0,510.0,510.0,515.0,515.0,515.0,515.0,512.0,512.0,512.0,512.0,512.0,512.0,509.0,509.0,509.0,509.0,509.0,503.0,508.0,520.0,520.0,520.0,529.0,529.0,529.0,529.0,538.0,538.0,538.0,547.0,547.0,547.0,549.0,549.0,549.0,549.0,549.0,555.0,445.0,442.0,442.0,442.0,508.0,508.0,508.0,508.0,544.0,544.0,544.0,543.0,543.0,543.0,509.0,509.0,509.0,509.0,509.0,491.0,19.0,89.0,164.0,503.0,508.0,442.0
0,510.0,547.0,479.0,509.9555555555556,513.4888888888889,499.1111111111111,515.0,555.0,544.0,515.0,515.0,515.0,515.0,512.0,512.0,512.0,512.0,512.0,512.0,509.0,509.0,509.0,509.0,509.0,503.0,503.0,503.0,510.0,510.0,529.0,529.0,529.0,529.0,538.0,538.0,538.0,547.0,547.0,547.0,549.0,549.0,549.0,549.0,549.0,555.0,555.0,555.0,547.0,547.0,508.0,508.0,508.0,508.0,544.0,544.0,544.0,543.0,543.0,543.0,509.0,509.0,509.0,509.0,509.0,491.0,491.0,491.0,479.0,479.0,19.0,89.0,102.0,503.0,529.0,479.0
0,511.0,536.0,529.0,509.44444444444446,520.0444444444445,498.35555555555555,512.0,555.0,544.0,512.0,512.0,512.0,512.0,512.0,512.0,509.0,509.0,509.0,509.0,509.0,503.0,503.0,503.0,510.0,510.0,510.0,510.0,510.0,511.0,538.0,538.0,538.0,547.0,547.0,547.0,549.0,549.0,549.0,549.0,549.0,555.0,555.0,555.0,547.0,547.0,547.0,547.0,547.0,536.0,544.0,544.0,544.0,543.0,543.0,543.0,509.0,509.0,509.0,509.0,509.0,491.0,491.0,491.0,479.0,479.0,479.0,479.0,479.0,529.0,19.0,83.0,102.0,503.0,536.0,479.0
0,511.0,529.0,544.0,509.68888888888887,524.0222222222222,501.75555555555553,512.0,555.0,544.0,512.0,512.0,512.0,509.0,509.0,509.0,509.0,509.0,503.0,503.0,503.0,510.0,510.0,510.0,510.0,510.0,511.0,511.0,511.0,511.0,547.0,547.0,547.0,549.0,549.0,549.0,549.0,549.0,555.0,555.0,555.0,547.0,547.0,547.0,547.0,547.0,536.0,536.0,536.0,529.0,543.0,543.0,543.0,509.0,509.0,509.0,509.0,509.0,491.0,491.0,491.0,479.0,479.0,479.0,479.0,479.0,529.0,529.0,529.0,544.0,14.0,80.0,102.0,503.0,529.0,479.0
0,517.0,519.0,533.0,510.26666666666665,527.3111111111111,503.9555555555556,517.0,555.0,544.0,509.0,509.0,509.0,509.0,509.0,503.0,503.0,503.0,510.0,510.0,510.0,510.0,510.0,511.0,511.0,511.0,511.0,511.0,511.0,517.0,549.0,549.0,549.0,549.0,549.0,555.0,555.0,555.0,547.0,547.0,547.0,547.0,547.0,536.0,536.0,536.0,529.0,529.0,529.0,519.0,509.0,509.0,509.0,509.0,509.0,491.0,491.0,491.0,479.0,479.0,479.0,479.0,479.0,529.0,529.0,529.0,544.0,544.0,544.0,533.0,14.0,78.0,102.0,503.0,519.0,479.0
0,507.0,507.0,516.0,510.55555555555554,530.4444444444445,503.7111111111111,517.0,555.0,544.0,509.0,503.0,503.0,503.0,510.0,510.0,510.0,510.0,510.0,511.0,511.0,511.0,511.0,511.0,511.0,517.0,517.0,517.0,517.0,507.0,549.0,555.0,555.0,555.0,547.0,547.0,547.0,547.0,547.0,536.0,536.0,536.0,529.0,529.0,529.0,519.0,519.0,519.0,519.0,507.0,509.0,491.0,491.0,491.0,479.0,479.0,479.0,479.0,479.0,529.0,529.0,529.0,544.0,544.0,544.0,533.0,533.0,533.0,533.0,516.0,14.0,59.0,102.0,503.0,507.0,479.0
0,501.0,499.0,501.0,510.3777777777778,531.0666666666667,504.73333333333335,517.0,547.0,544.0,510.0,510.0,510.0,510.0,510.0,511.0,511.0,511.0,511.0,511.0,511.0,517.0,517.0,517.0,517.0,507.0,507.0,507.0,501.0,501.0,547.0,547.0,547.0,547.0,547.0,536.0,536.0,536.0,529.0,529.0,529.0,519.0,519.0,519.0,519.0,507.0,507.0,507.0,499.0,499.0,479.0,479.0,479.0,479.0,479.0,529.0,529.0,529.0,544.0,544.0,544.0,533.0,533.0,533.0,533.0,516.0,516.0,516.0,501.0,501.0,16.0,56.0,102.0,501.0,499.0,479.0
0,504.0,488.0,529.0,509.55555555555554,530.0222222222222,510.3333333333333,517.0,547.0,544.0,510.0,511.0,511.0,511.0,511.0,511.0,511.0,517.0,517.0,517.0,517.0,507.0,507.0,507.0,501.0,501.0,501.0,501.0,501.0,504.0,547.0,536.0,536.0,536.0,529.0,529.0,529.0,519.0,519.0,519.0,519.0,507.0,507.0,507.0,499.0,499.0,499.0,499.0,499.0,488.0,479.0,529.0,529.0,529.0,544.0,544.0,544.0,533.0,533.0,533.0,533.0,516.0,516.0,516.0,501.0,501.0,501.0,501.0,501.0,529.0,16.0,67.0,102.0,501.0,488.0,479.0
0,505.0,477.0,526.0,508.93333333333334,526.7333333333333,516.5333333333333,517.0,529.0,544.0,511.0,511.0,511.0,517.0,517.0,517.0,517.0,507.0,507.0,507.0,501.0,501.0,501.0,501.0,501.0,504.0,504.0,504.0,505.0,505.0,529.0,529.0,529.0,519.0,519.0,519.0,519.0,507.0,507.0,507.0,499.0,499.0,499.0,499.0,499.0,488.0,488.0,488.0,477.0,477.0,544.0,544.0,544.0,533.0,533.0,533.0,533.0,516.0,516.0,516.0,501.0,501.0,501.0,501.0,501.0,529.0,529.0,529.0,526.0,526.0,16.0,78.0,65.0,501.0,477.0,501.0
0,506.0,468.0,509.0,508.15555555555557,521.5111111111111,516.5777777777778,517.0,519.0,533.0,517.0,517.0,517.0,507.0,507.0,507.0,501.0,501.0,501.0,501.0,501.0,504.0,504.0,504.0,504.0,505.0,505.0,505.0,506.0,506.0,519.0,519.0,519.0,507.0,507.0,507.0,499.0,499.0,499.0,499.0,499.0,488.0,488.0,488.0,488.0,477.0,477.0,477.0,468.0,468.0,533.0,533.0,533.0,516.0,516.0,516.0,501.0,501.0,501.0,501.0,501.0,529.0,529.0,529.0,529.0,526.0,526.0,526.0,509.0,509.0,16.0,87.0,65.0,501.0,468.0,501.0
0,502.0,464.0,474.0,507.6666666666667,516.5555555555555,513.4888888888889,507.0,507.0,529.0,507.0,507.0,507.0,501.0,501.0,501.0,501.0,501.0,504.0,504.0,504.0,504.0,505.0,505.0,505.0,506.0,506.0,506.0,506.0,502.0,507.0,507.0,507.0,499.0,499.0,499.0,499.0,499.0,488.0,488.0,488.0,488.0,477.0,477.0,477.0,468.0,468.0,468.0,468.0,464.0,516.0,516.0,516.0,501.0,501.0,501.0,501.0,501.0,529.0,529.0,529.0,529.0,526.0,526.0,526.0,509.0,509.0,509.0,509.0,474.0,16.0,91.0,70.0,501.0,464.0,474.0
0,499.0,464.0,447.0,506.93333333333334,510.97777777777776,508.44444444444446,506.0,499.0,529.0,501.0,501.0,501.0,501.0,501.0,504.0,504.0,504.0,504.0,505.0,505.0,505.0,506.0,506.0,506.0,506.0,502.0,502.0,499.0,499.0,499.0,499.0,499.0,499.0,499.0,488.0,488.0,488.0,488.0,477.0,477.0,477.0,468.0,468.0,468.0,468.0,464.0,464.0,464.0,464.0,501.0,501.0,501.0,501.0,501.0,529.0,529.0,529.0,529.0,526.0,526.0,526.0,509.0,509.0,509.0,509.0,474.0,474.0,447.0,447.0,18.0,91.0,97.0,499.0,464.0,447.0
0,498.0,476.0,462.0,506.22222222222223,505.84444444444443,504.97777777777776,506.0,499.0,529.0,501.0,501.0,504.0,504.0,504.0,504.0,505.0,505.0,505.0,506.0,506.0,506.0,506.0,502.0,502.0,499.0,499.0,499.0,498.0,498.0,499.0,499.0,488.0,488.0,488.0,488.0,477.0,477.0,477.0,468.0,468.0,468.0,468.0,464.0,464.0,464.0,464.0,464.0,476.0,476.0,501.0,501.0,529.0,529.0,529.0,529.0,526.0,526.0,526.0,509.0,509.0,509.0,509.0,474.0,474.0,447.0,447.0,447.0,462.0,462.0,19.0,91.0,97.0,498.0,464.0,447.0
0,512.0,476.0,515.0,506.1777777777778,502.46666666666664,504.46666666666664,512.0,488.0,529.0,504.0,504.0,504.0,504.0,505.0,505.0,505.0,506.0,506.0,506.0,506.0,502.0,502.0,499.0,499.0,499.0,498.0,498.0,512.0,512.0,488.0,488.0,488.0,488.0,477.0,477.0,477.0,468.0,468.0,468.0,468.0,464.0,464.0,464.0,464.0,464.0,476.0,476.0,476.0,476.0,529.0,529.0,529.0,529.0,526.0,526.0,526.0,509.0,509.0,509.0,509.0,474.0,474.0,447.0,447.0,447.0,462.0,462.0,515.0,515.0,19.0,91.0,97.0,498.0,464.0,447.0
0,514.0,485.0,553.0,506.8,494.6222222222222,509.6222222222222,514.0,485.0,553.0,505.0,505.0,506.0,506.0,506.0,506.0,502.0,502.0,499.0,499.0,499.0,498.0,498.0,498.0,512.0,512.0,512.0,512.0,514.0,514.0,477.0,477.0,468.0,468.0,468.0,468.0,464.0,464.0,464.0,464.0,464.0,476.0,476.0,476.0,476.0,476.0,476.0,476.0,485.0,485.0,526.0,526.0,509.0,509.0,509.0,509.0,474.0,474.0,447.0,447.0,447.0,462.0,462.0,462.0,515.0,515.0,515.0,515.0,553.0,553.0,19.0,83.0,106.0,498.0,464.0,447.0
0,514.0,485.0,553.0,507.1111111111111,489.6,513.9777777777778,514.0,485.0,553.0,506.0,506.0,502.0,502.0,499.0,499.0,499.0,498.0,498.0,498.0,512.0,512.0,512.0,512.0,514.0,514.0,514.0,514.0,514.0,514.0,468.0,468.0,464.0,464.0,464.0,464.0,464.0,476.0,476.0,476.0,476.0,476.0,476.0,476.0,485.0,485.0,485.0,485.0,485.0,485.0,509.0,509.0,474.0,474.0,447.0,447.0,447.0,462.0,462.0,462.0,515.0,515.0,515.0,515.0,553.0,553.0,553.0,553.0,553.0,553.0,19.0,72.0,106.0,498.0,464.0,447.0
0,514.0,503.0,531.0,507.0,487.35555555555555,514.2888888888889,514.0,503.0,553.0,502.0,499.0,499.0,499.0,498.0,498.0,498.0,512.0,512.0,512.0,512.0,514.0,514.0,514.0,514.0,514.0,514.0,507.0,507.0,514.0,464.0,464.0,464.0,464.0,476.0,476.0,476.0,476.0,476.0,476.0,476.0,485.0,485.0,485.0,485.0,485.0,485.0,495.0,495.0,503.0,474.0,447.0,447.0,447.0,462.0,462.0,462.0,515.0,515.0,515.0,515.0,553.0,553.0,553.0,553.0,553.0,553.0,550.0,550.0,531.0,19.0,65.0,106.0,498.0,464.0,447.0
0,513.0,515.0,507.0,506.8666666666667,486.8666666666667,512.3111111111111,514.0,515.0,553.0,499.0,498.0,498.0,498.0,512.0,512.0,512.0,512.0,514.0,514.0,514.0,514.0,514.0,514.0,507.0,507.0,514.0,513.0,513.0,513.0,464.0,476.0,476.0,476.0,476.0,476.0,476.0,476.0,485.0,485.0,485.0,485.0,485.0,485.0,495.0,495.0,503.0,515.0,515.0,515.0,447.0,462.0,462.0,462.0,515.0,515.0,515.0,515.0,553.0,553.0,553.0,553.0,553.0,553.0,550.0,550.0,531.0,507.0,507.0,507.0,19.0,55.0,106.0,498.0,464.0,447.0
0,505.0,526.0,517.0,506.46666666666664,487.35555555555555,511.4,514.0,526.0,553.0,498.0,512.0,512.0,512.0,512.0,514.0,514.0,514.0,514.0,514.0,514.0,507.0,507.0,514.0,513.0,513.0,513.0,513.0,505.0,505.0,476.0,476.0,476.0,476.0,476.0,485.0,485.0,485.0,485.0,485.0,485.0,495.0,495.0,503.0,515.0,515.0,515.0,515.0,526.0,526.0,462.0,515.0,515.0,515.0,515.0,553.0,553.0,553.0,553.0,553.0,553.0,550.0,550.0,531.0,507.0,507.0,507.0,507.0,517.0,517.0,16.0,62.0,106.0,498.0,476.0,462.0
0,512.0,536.0,502.0,506.7111111111111,489.6222222222222,511.8222222222222,514.0,536.0,553.0,512.0,514.0,514.0,514.0,514.0,514.0,514.0,507.0,507.0,514.0,513.0,513.0,513.0,513.0,505.0,505.0,505.0,505.0,505.0,512.0,476.0,485.0,485.0,485.0,485.0,485.0,485.0,495.0,495.0,503.0,515.0,515.0,515.0,515.0,526.0,526.0,526.0,526.0,526.0,536.0,515.0,553.0,553.0,553.0,553.0,553.0,553.0,550.0,550.0,531.0,507.0,507.0,507.0,507.0,517.0,517.0,517.0,517.0,517.0,502.0,16.0,72.0,106.0,505.0,476.0,502.0
0,515.0,542.0,483.0,507.5111111111111,492.22222222222223,511.46666666666664,515.0,542.0,553.0,514.0,514.0,514.0,514.0,507.0,507.0,514.0,513.0,513.0,513.0,513.0,505.0,505.0,505.0,505.0,505.0,512.0,512.0,512.0,515.0,485.0,485.0,485.0,485.0,495.0,495.0,503.0,515.0,515.0,515.0,515.0,526.0,526.0,526.0,526.0,526.0,536.0,536.0,536.0,542.0,553.0,553.0,553.0,553.0,550.0,550.0,531.0,507.0,507.0,507.0,507.0,517.0,517.0,517.0,517.0,517.0,502.0,502.0,502.0,483.0,17.0,78.0,106.0,505.0,485.0,483.0
0,510.0,551.0,481.0,508.1333333333333,496.02222222222224,508.35555555555555,515.0,551.0,553.0,514.0,507.0,507.0,514.0,513.0,513.0,513.0,513.0,505.0,505.0,505.0,505.0,505.0,512.0,512.0,512.0,515.0,515.0,515.0,510.0,485.0,495.0,495.0,503.0,515.0,515.0,515.0,515.0,526.0,526.0,526.0,526.0,526.0,536.0,536.0,536.0,542.0,542.0,542.0,551.0,553.0,550.0,550.0,531.0,507.0,507.0,507.0,507.0,517.0,517.0,517.0,517.0,517.0,502.0,502.0,502.0,483.0,483.0,483.0,481.0,17.0,87.0,106.0,505.0,485.0,481.0
0,510.0,553.0,487.0,508.6,502.44444444444446,504.55555555555554,515.0,553.0,517.0,513.0,513.0,513.0,513.0,505.0,505.0,505.0,505.0,505.0,512.0,512.0,512.0,515.0,515.0,515.0,510.0,510.0,510.0,510.0,510.0,515.0,515.0,515.0,515.0,526.0,526.0,526.0,526.0,526.0,536.0,536.0,536.0,542.0,542.0,542.0,551.0,551.0,551.0,553.0,553.0,507.0,507.0,507.0,507.0,517.0,517.0,517.0,517.0,517.0,502.0,502.0,502.0,483.0,483.0,483.0,481.0,481.0,481.0,487.0,487.0,17.0,89.0,106.0,505.0,515.0,481.0
0,505.0,553.0,486.0,508.64444444444445,508.1111111111111,503.0444444444444,515.0,553.0,517.0,513.0,505.0,505.0,505.0,505.0,505.0,512.0,512.0,512.0,515.0,515.0,515.0,510.0,510.0,510.0,510.0,510.0,510.0,505.0,505.0,515.0,526.0,526.0,526.0,526.0,526.0,536.0,536.0,536.0,542.0,542.0,542.0,551.0,551.0,551.0,553.0,553.0,553.0,553.0,553.0,507.0,517.0,517.0,517.0,517.0,517.0,502.0,502.0,502.0,483.0,483.0,483.0,481.0,481.0,481.0,487.0,487.0,487.0,486.0,486.0,17.0,89.0,106.0,505.0,515.0,481.0
0,511.0,548.0,525.0,509.02222222222224,513.7333333333333,504.8,515.0,553.0,525.0,505.0,505.0,505.0,512.0,512.0,512.0,515.0,515.0,515.0,510.0,510.0,510.0,510.0,510.0,510.0,505.0,505.0,505.0,511.0,511.0,526.0,526.0,526.0,536.0,536.0,536.0,542.0,542.0,542.0,551.0,551.0,551.0,553.0,553.0,553.0,553.0,553.0,553.0,548.0,548.0,517.0,517.0,517.0,502.0,502.0,502.0,483.0,483.0,483.0,481.0,481.0,481.0,487.0,487.0,487.0,486.0,486.0,486.0,525.0,525.0,17.0,89.0,106.0,505.0,526.0,481.0
0,510.0,536.0,544.0,509.77777777777777,518.8,510.84444444444443,515.0,553.0,544.0,512.0,512.0,512.0,515.0,515.0,515.0,510.0,510.0,510.0,510.0,510.0,510.0,505.0,505.0,505.0,511.0,511.0,511.0,510.0,510.0,536.0,536.0,536.0,542.0,542.0,542.0,551.0,551.0,551.0,553.0,553.0,553.0,553.0,553.0,553.0,548.0,548.0,548.0,536.0,536.0,502.0,502.0,502.0,483.0,483.0,483.0,481.0,481.0,481.0,487.0,487.0,487.0,486.0,486.0,486.0,525.0,525.0,525.0,544.0,544.0,17.0,77.0,91.0,505.0,536.0,481.0
0,510.0,526.0,536.0,510.31111111111113,521.2444444444444,514.3111111111111,515.0,553.0,544.0,512.0,515.0,515.0,515.0,510.0,510.0,510.0,510.0,510.0,510.0,505.0,505.0,505.0,511.0,511.0,511.0,510.0,510.0,510.0,510.0,536.0,542.0,542.0,542.0,551.0,551.0,551.0,553.0,553.0,553.0,553.0,553.0,553.0,548.0,548.0,548.0,536.0,536.0,536.0,526.0,502.0,483.0,483.0,483.0,481.0,481.0,481.0,487.0,487.0,487.0,486.0,486.0,486.0,525.0,525.0,525.0,544.0,544.0,544.0,536.0,17.0,77.0,91.0,505.0,526.0,481.0
0,512.0,518.0,558.0,510.4888888888889,525.5111111111111,517.8444444444444,512.0,553.0,558.0,510.0,510.0,510.0,510.0,510.0,510.0,505.0,505.0,505.0,511.0,511.0,511.0,510.0,510.0,510.0,510.0,510.0,510.0,512.0,512.0,551.0,551.0,551.0,553.0,553.0,553.0,553.0,553.0,553.0,548.0,548.0,548.0,536.0,536.0,536.0,526.0,526.0,526.0,518.0,518.0,481.0,481.0,481.0,487.0,487.0,487.0,486.0,486.0,486.0,525.0,525.0,525.0,544.0,544.0,544.0,536.0,536.0,536.0,558.0,558.0,10.0,77.0,77.0,505.0,518.0,481.0
0,503.0,505.0,545.0,509.9555555555556,528.0666666666667,518.5555555555555,512.0,553.0,558.0,510.0,510.0,505.0,505.0,505.0,511.0,511.0,511.0,510.0,510.0,510.0,510.0,510.0,510.0,510.0,512.0,512.0,512.0,503.0,503.0,553.0,553.0,553.0,553.0,553.0,548.0,548.0,548.0,536.0,536.0,536.0,526.0,526.0,526.0,526.0,518.0,518.0,518.0,505.0,505.0,487.0,487.0,486.0,486.0,486.0,525.0,525.0,525.0,544.0,544.0,544.0,536.0,536.0,536.0,536.0,558.0,558.0,558.0,545.0,545.0,12.0,68.0,77.0,503.0,505.0,486.0
0,508.0,491.0,505.0,509.35555555555555,529.0,516.1333333333333,512.0,553.0,558.0,505.0,511.0,511.0,511.0,510.0,510.0,510.0,510.0,510.0,510.0,510.0,512.0,512.0,512.0,503.0,503.0,503.0,503.0,508.0,508.0,553.0,548.0,548.0,548.0,536.0,536.0,536.0,526.0,526.0,526.0,526.0,518.0,518.0,518.0,505.0,505.0,505.0,505.0,491.0,491.0,486.0,525.0,525.0,525.0,544.0,544.0,544.0,536.0,536.0,536.0,536.0,558.0,558.0,558.0,545.0,545.0,545.0,545.0,505.0,505.0,12.0,62.0,77.0,503.0,491.0,486.0
0,508.0,481.0,510.0,509.24444444444447,528.4222222222222,514.6666666666666,512.0,548.0,558.0,511.0,511.0,510.0,510.0,510.0,510.0,510.0,510.0,510.0,512.0,512.0,512.0,503.0,503.0,503.0,503.0,508.0,508.0,508.0,508.0,548.0,548.0,536.0,536.0,536.0,526.0,526.0,526.0,526.0,518.0,518.0,518.0,505.0,505.0,505.0,505.0,491.0,491.0,481.0,481.0,525.0,525.0,544.0,544.0,544.0,536.0,536.0,536.0,536.0,558.0,558.0,558.0,545.0,545.0,545.0,545.0,505.0,505.0,510.0,510.0,12.0,72.0,77.0,503.0,481.0,505.0
0,509.0,473.0,498.0,508.84444444444443,525.0444444444445,514.4,512.0,536.0,558.0,510.0,510.0,510.0,510.0,510.0,512.0,512.0,512.0,503.0,503.0,503.0,503.0,508.0,508.0,508.0,508.0,508.0,508.0,509.0,509.0,536.0,526.0,526.0,526.0,526.0,518.0,518.0,518.0,505.0,505.0,505.0,505.0,491.0,491.0,491.0,481.0,481.0,481.0,473.0,473.0,544.0,536.0,536.0,536.0,536.0,558.0,558.0,558.0,545.0,545.0,545.0,545.0,505.0,505.0,505.0,510.0,510.0,510.0,498.0,498.0,12.0,80.0,77.0,503.0,473.0,498.0
0,506.0,467.0,472.0,509.06666666666666,520.0666666666667,511.55555555555554,512.0,526.0,558.0,510.0,512.0,512.0,512.0,503.0,503.0,503.0,503.0,508.0,508.0,508.0,508.0,508.0,508.0,509.0,509.0,509.0,509.0,506.0,506.0,526.0,518.0,518.0,518.0,505.0,505.0,505.0,505.0,491.0,491.0,491.0,481.0,481.0,481.0,473.0,473.0,473.0,473.0,467.0,467.0,536.0,558.0,558.0,558.0,545.0,545.0,545.0,545.0,505.0,505.0,505.0,510.0,510.0,510.0,498.0,498.0,498.0,498.0,472.0,472.0,12.0,86.0,86.0,503.0,467.0,472.0
0,503.0,467.0,474.0,508.68888888888887,515.6888888888889,509.31111111111113,512.0,518.0,558.0,512.0,503.0,503.0,503.0,503.0,508.0,508.0,508.0,508.0,508.0,508.0,509.0,509.0,509.0,509.0,506.0,506.0,506.0,503.0,503.0,518.0,505.0,505.0,505.0,505.0,491.0,491.0,491.0,481.0,481.0,481.0,473.0,473.0,473.0,473.0,467.0,467.0,467.0,467.0,467.0,558.0,545.0,545.0,545.0,545.0,505.0,505.0,505.0,510.0,510.0,510.0,498.0,498.0,498.0,498.0,472.0,472.0,472.0,474.0,474.0,12.0,86.0,86.0,503.0,467.0,472.0
0,499.0,470.0,490.0,507.77777777777777,510.9555555555556,509.0,509.0,505.0,545.0,503.0,503.0,508.0,508.0,508.0,508.0,508.0,508.0,509.0,509.0,509.0,509.0,506.0,506.0,506.0,503.0,503.0,503.0,499.0,499.0,505.0,505.0,491.0,491.0,491.0,481.0,481.0,481.0,473.0,473.0,473.0,473.0,467.0,467.0,467.0,467.0,467.0,467.0,470.0,470.0,545.0,545.0,505.0,505.0,505.0,510.0,510.0,510.0,498.0,498.0,498.0,498.0,472.0,472.0,472.0,474.0,474.0,474.0,490.0,490.0,16.0,86.0,86.0,499.0,467.0,472.0
0,504.0,478.0,516.0,507.15555555555557,506.1111111111111,510.7111111111111,509.0,491.0,516.0,508.0,508.0,508.0,508.0,508.0,509.0,509.0,509.0,509.0,506.0,506.0,506.0,503.0,503.0,503.0,499.0,499.0,499.0,504.0,504.0,491.0,491.0,481.0,481.0,481.0,473.0,473.0,473.0,473.0,467.0,467.0,467.0,467.0,467.0,467.0,470.0,470.0,470.0,478.0,478.0,505.0,505.0,510.0,510.0,510.0,498.0,498.0,498.0,498.0,472.0,472.0,472.0,474.0,474.0,474.0,490.0,490.0,490.0,516.0,516.0,13.0,86.0,86.0,499.0,467.0,472.0
0,510.0,482.0,521.0,507.02222222222224,501.3333333333333,513.0,510.0,482.0,521.0,508.0,508.0,509.0,509.0,509.0,509.0,506.0,506.0,506.0,503.0,503.0,503.0,499.0,499.0,499.0,504.0,504.0,504.0,510.0,510.0,481.0,481.0,473.0,473.0,473.0,473.0,467.0,467.0,467.0,467.0,467.0,467.0,470.0,470.0,470.0,478.0,478.0,478.0,482.0,482.0,510.0,510.0,498.0,498.0,498.0,498.0,472.0,472.0,472.0,474.0,474.0,474.0,490.0,490.0,490.0,516.0,516.0,516.0,521.0,521.0,13.0,86.0,86.0,499.0,467.0,472.0
0,513.0,486.0,517.0,507.3777777777778,496.77777777777777,515.1333333333333,513.0,486.0,521.0,509.0,509.0,509.0,506.0,506.0,506.0,503.0,503.0,503.0,499.0,499.0,499.0,504.0,504.0,504.0,510.0,510.0,510.0,513.0,513.0,473.0,473.0,473.0,467.0,467.0,467.0,467.0,467.0,467.0,470.0,470.0,470.0,478.0,478.0,478.0,482.0,482.0,482.0,486.0,486.0,498.0,498.0,498.0,472.0,472.0,472.0,474.0,474.0,474.0,490.0,490.0,490.0,516.0,516.0,516.0,521.0,521.0,521.0,517.0,517.0,14.0,86.0,86.0,499.0,467.0,472.0
0,510.0,499.0,514.0,507.5111111111111,493.1111111111111,515.3333333333334,513.0,499.0,521.0,506.0,506.0,506.0,503.0,503.0,503.0,499.0,499.0,499.0,504.0,504.0,504.0,510.0,510.0,510.0,513.0,513.0,513.0,510.0,510.0,467.0,467.0,467.0,467.0,467.0,467.0,470.0,470.0,470.0,478.0,478.0,478.0,482.0,482.0,482.0,486.0,486.0,486.0,499.0,499.0,472.0,472.0,472.0,474.0,474.0,474.0,490.0,490.0,490.0,516.0,516.0,516.0,521.0,521.0,521.0,517.0,517.0,517.0,514.0,514.0,14.0,81.0,86.0,499.0,467.0,472.0
0,510.0,513.0,509.0,507.4888888888889,491.0,513.5333333333333,513.0,513.0,521.0,503.0,503.0,503.0,499.0,499.0,499.0,504.0,504.0,504.0,510.0,510.0,510.0,513.0,513.0,513.0,510.0,510.0,510.0,510.0,510.0,467.0,467.0,467.0,470.0,470.0,470.0,478.0,478.0,478.0,482.0,482.0,482.0,486.0,486.0,486.0,499.0,499.0,499.0,513.0,513.0,474.0,474.0,474.0,490.0,490.0,490.0,516.0,516.0,516.0,521.0,521.0,521.0,517.0,517.0,517.0,514.0,514.0,514.0,509.0,509.0,14.0,69.0,86.0,499.0,467.0,474.0
0,511.0,524.0,508.0,507.53333333333336,490.1111111111111,510.9111111111111,513.0,524.0,521.0,499.0,499.0,504.0,504.0,504.0,510.0,510.0,510.0,513.0,513.0,513.0,510.0,510.0,510.0,510.0,510.0,510.0,510.0,511.0,511.0,470.0,470.0,478.0,478.0,478.0,482.0,482.0,482.0,486.0,486.0,486.0,499.0,499.0,499.0,513.0,513.0,513.0,513.0,524.0,524.0,490.0,490.0,516.0,516.0,516.0,521.0,521.0,521.0,517.0,517.0,517.0,514.0,514.0,514.0,509.0,509.0,509.0,509.0,508.0,508.0,14.0,59.0,86.0,499.0,470.0,490.0
0,509.0,526.0,512.0,507.4222222222222,490.4222222222222,508.24444444444447,513.0,526.0,521.0,504.0,504.0,510.0,510.0,510.0,513.0,513.0,513.0,510.0,510.0,510.0,510.0,510.0,510.0,510.0,511.0,511.0,511.0,509.0,509.0,478.0,478.0,482.0,482.0,482.0,486.0,486.0,486.0,499.0,499.0,499.0,513.0,513.0,513.0,513.0,524.0,524.0,524.0,526.0,526.0,516.0,516.0,521.0,521.0,521.0,517.0,517.0,517.0,514.0,514.0,514.0,509.0,509.0,509.0,509.0,508.0,508.0,508.0,512.0,512.0,14.0,59.0,86.0,504.0,478.0,508.0
0,509.0,539.0,491.0,507.6222222222222,491.8222222222222,505.2888888888889,513.0,539.0,521.0,510.0,510.0,513.0,513.0,513.0,510.0,510.0,510.0,510.0,510.0,510.0,510.0,511.0,511.0,511.0,509.0,509.0,509.0,509.0,509.0,482.0,482.0,486.0,486.0,486.0,499.0,499.0,499.0,513.0,513.0,513.0,513.0,524.0,524.0,524.0,526.0,526.0,526.0,526.0,539.0,521.0,521.0,517.0,517.0,517.0,514.0,514.0,514.0,509.0,509.0,509.0,509.0,508.0,508.0,508.0,512.0,512.0,512.0,512.0,491.0,14.0,72.0,73.0,509.0,482.0,491.0
0,515.0,548.0,489.0,508.0444444444444,494.6,502.53333333333336,515.0,548.0,517.0,513.0,513.0,510.0,510.0,510.0,510.0,510.0,510.0,510.0,511.0,511.0,511.0,509.0,509.0,509.0,509.0,509.0,509.0,509.0,515.0,486.0,486.0,499.0,499.0,499.0,513.0,513.0,513.0,513.0,524.0,524.0,524.0,526.0,526.0,526.0,526.0,539.0,539.0,539.0,548.0,517.0,517.0,514.0,514.0,514.0,509.0,509.0,509.0,509.0,508.0,508.0,508.0,512.0,512.0,512.0,512.0,491.0,491.0,491.0,489.0,16.0,81.0,49.0,509.0,486.0,489.0
0,512.0,555.0,497.0,508.3777777777778,498.93333333333334,501.7111111111111,515.0,555.0,514.0,510.0,510.0,510.0,510.0,510.0,510.0,511.0,511.0,511.0,509.0,509.0,509.0,509.0,509.0,509.0,509.0,515.0,515.0,512.0,512.0,499.0,499.0,513.0,513.0,513.0,513.0,524.0,524.0,524.0,526.0,526.0,526.0,526.0,539.0,539.0,539.0,548.0,548.0,555.0,555.0,514.0,514.0,509.0,509.0,509.0,509.0,508.0,508.0,508.0,512.0,512.0,512.0,512.0,491.0,491.0,491.0,489.0,489.0,497.0,497.0,16.0,88.0,49.0,509.0,499.0,489.0
0,509.0,552.0,520.0,508.55555555555554,505.73333333333335,502.1111111111111,515.0,555.0,520.0,510.0,510.0,511.0,511.0,511.0,509.0,509.0,509.0,509.0,509.0,509.0,509.0,515.0,515.0,512.0,512.0,512.0,512.0,509.0,509.0,513.0,513.0,524.0,524.0,524.0,526.0,526.0,526.0,526.0,539.0,539.0,539.0,548.0,548.0,555.0,555.0,555.0,555.0,552.0,552.0,509.0,509.0,508.0,508.0,508.0,512.0,512.0,512.0,512.0,491.0,491.0,491.0,489.0,489.0,497.0,497.0,497.0,497.0,520.0,520.0,16.0,88.0,49.0,509.0,513.0,489.0
0,511.0,549.0,519.0,508.73333333333335,512.9555555555555,505.2,515.0,555.0,520.0,511.0,509.0,509.0,509.0,509.0,509.0,509.0,509.0,515.0,515.0,512.0,512.0,512.0,512.0,509.0,509.0,509.0,509.0,509.0,511.0,524.0,526.0,526.0,526.0,526.0,539.0,539.0,539.0,548.0,548.0,555.0,555.0,555.0,555.0,552.0,552.0,552.0,552.0,552.0,549.0,508.0,512.0,512.0,512.0,512.0,491.0,491.0,491.0,489.0,489.0,497.0,497.0,497.0,497.0,520.0,520.0,520.0,520.0,520.0,519.0,16.0,88.0,49.0,509.0,524.0,489.0
0,513.0,543.0,519.0,509.2888888888889,518.1555555555556,508.24444444444447,515.0,555.0,520.0,509.0,509.0,509.0,509.0,509.0,515.0,515.0,512.0,512.0,512.0,512.0,509.0,509.0,509.0,509.0,509.0,511.0,511.0,513.0,513.0,526.0,526.0,539.0,539.0,539.0,548.0,548.0,555.0,555.0,555.0,555.0,552.0,552.0,552.0,552.0,552.0,549.0,549.0,543.0,543.0,512.0,512.0,491.0,491.0,491.0,489.0,489.0,497.0,497.0,497.0,497.0,520.0,520.0,520.0,520.0,520.0,519.0,519.0,519.0,519.0,16.0,88.0,47.0,509.0,526.0,489.0
0,501.0,530.0,528.0,509.55555555555554,521.1777777777778,510.0888888888889,515.0,555.0,528.0,509.0,509.0,509.0,515.0,515.0,512.0,512.0,512.0,512.0,509.0,509.0,509.0,509.0,509.0,511.0,511.0,513.0,513.0,513.0,501.0,539.0,539.0,539.0,548.0,548.0,555.0,555.0,555.0,555.0,552.0,552.0,552.0,552.0,552.0,549.0,549.0,543.0,543.0,543.0,530.0,491.0,491.0,491.0,489.0,489.0,497.0,497.0,497.0,497.0,520.0,520.0,520.0,520.0,520.0,519.0,519.0,519.0,519.0,519.0,528.0,16.0,85.0,39.0,501.0,530.0,489.0
0,515.0,516.0,508.0,509.8888888888889,524.6888888888889,511.6,515.0,555.0,528.0,515.0,515.0,512.0,512.0,512.0,512.0,509.0,509.0,509.0,509.0,509.0,511.0,511.0,513.0,513.0,513.0,501.0,501.0,501.0,515.0,548.0,548.0,555.0,555.0,555.0,555.0,552.0,552.0,552.0,552.0,552.0,549.0,549.0,543.0,543.0,543.0,530.0,530.0,530.0,516.0,489.0,489.0,497.0,497.0,497.0,497.0,520.0,520.0,520.0,520.0,520.0,519.0,519.0,519.0,519.0,519.0,528.0,528.0,528.0,508.0,14.0,77.0,39.0,501.0,516.0,489.0
0,511.0,511.0,500.0,510.53333333333336,528.4222222222222,510.02222222222224,515.0,555.0,528.0,512.0,509.0,509.0,509.0,509.0,509.0,511.0,511.0,513.0,513.0,513.0,501.0,501.0,501.0,515.0,515.0,515.0,515.0,511.0,511.0,555.0,552.0,552.0,552.0,552.0,552.0,549.0,549.0,543.0,543.0,543.0,530.0,530.0,530.0,516.0,516.0,516.0,516.0,511.0,511.0,497.0,520.0,520.0,520.0,520.0,520.0,519.0,519.0,519.0,519.0,519.0,528.0,528.0,528.0,508.0,508.0,508.0,508.0,500.0,500.0,14.0,69.0,39.0,501.0,511.0,497.0
0,508.0,510.0,509.0,510.3333333333333,530.0666666666667,509.0888888888889,515.0,552.0,528.0,509.0,509.0,509.0,511.0,511.0,513.0,513.0,513.0,501.0,501.0,501.0,515.0,515.0,515.0,515.0,511.0,511.0,511.0,511.0,508.0,552.0,552.0,552.0,549.0,549.0,543.0,543.0,543.0,530.0,530.0,530.0,516.0,516.0,516.0,516.0,511.0,511.0,511.0,511.0,510.0,520.0,520.0,520.0,519.0,519.0,519.0,519.0,519.0,528.0,528.0,528.0,508.0,508.0,508.0,508.0,500.0,500.0,500.0,500.0,509.0,14.0,56.0,39.0,501.0,510.0,500.0
0,507.0,481.0,520.0,510.1111111111111,529.4444444444445,509.24444444444447,515.0,549.0,528.0,511.0,513.0,513.0,513.0,501.0,501.0,501.0,515.0,515.0,515.0,515.0,511.0,511.0,511.0,511.0,508.0,508.0,508.0,507.0,507.0,549.0,543.0,543.0,543.0,530.0,530.0,530.0,516.0,516.0,516.0,516.0,511.0,511.0,511.0,511.0,510.0,510.0,510.0,481.0,481.0,519.0,519.0,519.0,519.0,528.0,528.0,528.0,508.0,508.0,508.0,508.0,500.0,500.0,500.0,500.0,509.0,509.0,509.0,520.0,520.0,14.0,74.0,39.0,501.0,481.0,500.0
0,506.0,473.0,519.0,509.77777777777777,526.0,510.2,515.0,530.0,528.0,501.0,501.0,501.0,515.0,515.0,515.0,515.0,511.0,511.0,511.0,511.0,508.0,508.0,508.0,507.0,507.0,507.0,507.0,506.0,506.0,530.0,530.0,530.0,516.0,516.0,516.0,516.0,511.0,511.0,511.0,511.0,510.0,510.0,510.0,481.0,481.0,481.0,481.0,473.0,473.0,528.0,528.0,528.0,508.0,508.0,508.0,508.0,500.0,500.0,500.0,500.0,509.0,509.0,509.0,520.0,520.0,520.0,520.0,519.0,519.0,14.0,82.0,39.0,501.0,473.0,500.0
0,510.0,469.0,530.0,509.6666666666667,522.3777777777777,511.3333333333333,515.0,516.0,530.0,515.0,515.0,515.0,515.0,511.0,511.0,511.0,511.0,508.0,508.0,508.0,507.0,507.0,507.0,507.0,506.0,506.0,506.0,510.0,510.0,516.0,516.0,516.0,516.0,511.0,511.0,511.0,511.0,510.0,510.0,510.0,481.0,481.0,481.0,481.0,473.0,473.0,473.0,469.0,469.0,508.0,508.0,508.0,508.0,500.0,500.0,500.0,500.0,509.0,509.0,509.0,520.0,520.0,520.0,520.0,519.0,519.0,519.0,530.0,530.0,14.0,86.0,41.0,506.0,469.0,500.0
0,508.0,464.0,518.0,509.6666666666667,516.8,512.8666666666667,511.0,511.0,530.0,511.0,511.0,511.0,511.0,508.0,508.0,508.0,507.0,507.0,507.0,507.0,506.0,506.0,506.0,510.0,510.0,510.0,510.0,508.0,508.0,511.0,511.0,511.0,511.0,510.0,510.0,510.0,481.0,481.0,481.0,481.0,473.0,473.0,473.0,469.0,469.0,469.0,469.0,464.0,464.0,500.0,500.0,500.0,500.0,509.0,509.0,509.0,520.0,520.0,520.0,520.0,519.0,519.0,519.0,530.0,530.0,530.0,530.0,518.0,518.0,14.0,91.0,41.0,506.0,464.0,500.0
0,501.0,470.0,523.0,509.15555555555557,511.8666666666667,514.9333333333333,511.0,511.0,530.0,511.0,508.0,508.0,508.0,507.0,507.0,507.0,507.0,506.0,506.0,506.0,510.0,510.0,510.0,510.0,508.0,508.0,508.0,501.0,501.0,511.0,510.0,510.0,510.0,481.0,481.0,481.0,481.0,473.0,473.0,473.0,469.0,469.0,469.0,469.0,464.0,464.0,464.0,470.0,470.0,500.0,509.0,509.0,509.0,520.0,520.0,520.0,520.0,519.0,519.0,519.0,530.0,530.0,530.0,530.0,518.0,518.0,518.0,523.0,523.0,14.0,91.0,41.0,501.0,464.0,500.0
0,501.0,472.0,534.0,508.35555555555555,506.44444444444446,517.3333333333334,510.0,510.0,534.0,508.0,507.0,507.0,507.0,507.0,506.0,506.0,506.0,510.0,510.0,510.0,510.0,508.0,508.0,508.0,501.0,501.0,501.0,501.0,501.0,510.0,481.0,481.0,481.0,481.0,473.0,473.0,473.0,469.0,469.0,469.0,469.0,464.0,464.0,464.0,470.0,470.0,470.0,472.0,472.0,509.0,520.0,520.0,520.0,520.0,519.0,519.0,519.0,530.0,530.0,530.0,530.0,518.0,518.0,518.0,523.0,523.0,523.0,534.0,534.0,14.0,91.0,37.0,501.0,464.0,509.0
0,504.0,480.0,511.0,507.93333333333334,502.93333333333334,518.4666666666667,510.0,481.0,534.0,507.0,507.0,507.0,506.0,506.0,506.0,510.0,510.0,510.0,510.0,508.0,508.0,508.0,501.0,501.0,501.0,501.0,501.0,501.0,504.0,481.0,481.0,481.0,473.0,473.0,473.0,469.0,469.0,469.0,469.0,464.0,464.0,464.0,470.0,470.0,470.0,472.0,472.0,472.0,480.0,520.0,520.0,520.0,519.0,519.0,519.0,530.0,530.0,530.0,530.0,518.0,518.0,518.0,523.0,523.0,523.0,534.0,534.0,534.0,511.0,14.0,88.0,34.0,501.0,464.0,511.0
0,504.0,480.0,511.0,507.7111111111111,499.73333333333335,518.0666666666667,510.0,481.0,534.0,507.0,506.0,506.0,506.0,510.0,510.0,510.0,510.0,508.0,508.0,508.0,501.0,501.0,501.0,501.0,501.0,504.0,504.0,504.0,506.0,481.0,473.0,473.0,473.0,469.0,469.0,469.0,469.0,464.0,464.0,470.0,470.0,470.0,472.0,472.0,472.0,480.0,480.0,480.0,490.0,520.0,519.0,519.0,519.0,530.0,530.0,530.0,530.0,518.0,518.0,523.0,523.0,523.0,534.0,534.0,534.0,511.0,511.0,511.0,464.0,14.0,88.0,34.0,501.0,464.0,511.0
0,514.0,491.0,466.0,507.64444444444445,493.02222222222224,511.97777777777776,514.0,491.0,534.0,510.0,510.0,510.0,508.0,508.0,508.0,501.0,501.0,501.0,501.0,501.0,501.0,504.0,504.0,504.0,506.0,506.0,506.0,514.0,514.0,469.0,469.0,469.0,464.0,464.0,464.0,470.0,470.0,470.0,472.0,472.0,472.0,480.0,480.0,480.0,490.0,490.0,490.0,491.0,491.0,530.0,530.0,530.0,518.0,518.0,518.0,523.0,523.0,523.0,534.0,534.0,534.0,511.0,511.0,511.0,464.0,464.0,464.0,466.0,466.0,14.0,79.0,70.0,501.0,464.0,464.0
0,512.0,503.0,488.0,507.64444444444445,490.97777777777776,510.1111111111111,514.0,503.0,534.0,510.0,508.0,508.0,508.0,501.0,501.0,501.0,501.0,501.0,501.0,504.0,504.0,504.0,506.0,506.0,506.0,514.0,514.0,514.0,512.0,469.0,464.0,464.0,464.0,470.0,470.0,470.0,472.0,472.0,472.0,480.0,480.0,480.0,490.0,490.0,490.0,491.0,491.0,491.0,503.0,530.0,518.0,518.0,518.0,523.0,523.0,523.0,534.0,534.0,534.0,511.0,511.0,511.0,464.0,464.0,464.0,466.0,466.0,466.0,488.0,14.0,79.0,70.0,501.0,464.0,464.0
0,512.0,503.0,488.0,508.1111111111111,488.8888888888889,507.64444444444445,514.0,503.0,534.0,508.0,501.0,501.0,501.0,501.0,501.0,501.0,504.0,504.0,504.0,506.0,506.0,506.0,514.0,514.0,514.0,512.0,512.0,512.0,512.0,464.0,470.0,470.0,470.0,472.0,472.0,472.0,480.0,480.0,480.0,490.0,490.0,490.0,491.0,491.0,491.0,503.0,503.0,503.0,503.0,518.0,523.0,523.0,523.0,534.0,534.0,534.0,511.0,511.0,511.0,464.0,464.0,464.0,466.0,466.0,466.0,488.0,488.0,488.0,488.0,14.0,66.0,70.0,501.0,464.0,464.0
0,503.0,524.0,506.0,507.6666666666667,488.97777777777776,506.44444444444446,514.0,524.0,534.0,501.0,501.0,501.0,504.0,504.0,504.0,506.0,506.0,506.0,514.0,514.0,514.0,512.0,512.0,512.0,512.0,510.0,510.0,503.0,503.0,472.0,472.0,472.0,480.0,480.0,480.0,490.0,490.0,490.0,491.0,491.0,491.0,503.0,503.0,503.0,503.0,517.0,517.0,524.0,524.0,534.0,534.0,534.0,511.0,511.0,511.0,464.0,464.0,464.0,466.0,466.0,466.0,488.0,488.0,488.0,488.0,493.0,493.0,506.0,506.0,14.0,60.0,70.0,501.0,472.0,464.0
0,511.0,533.0,516.0,507.4,490.1333333333333,507.1111111111111,514.0,533.0,516.0,504.0,504.0,504.0,506.0,506.0,506.0,514.0,514.0,514.0,512.0,512.0,512.0,512.0,510.0,510.0,503.0,503.0,503.0,511.0,511.0,480.0,480.0,480.0,490.0,490.0,490.0,491.0,491.0,491.0,503.0,503.0,503.0,503.0,517.0,517.0,524.0,524.0,524.0,533.0,533.0,511.0,511.0,511.0,464.0,464.0,464.0,466.0,466.0,466.0,488.0,488.0,488.0,488.0,493.0,493.0,506.0,506.0,506.0,516.0,516.0,13.0,69.0,70.0,503.0,480.0,464.0
0,520.0,548.0,501.0,507.93333333333334,492.8,507.46666666666664,520.0,548.0,516.0,506.0,506.0,514.0,514.0,514.0,512.0,512.0,512.0,512.0,510.0,510.0,503.0,503.0,503.0,511.0,511.0,511.0,511.0,520.0,520.0,490.0,490.0,491.0,491.0,491.0,503.0,503.0,503.0,503.0,517.0,517.0,524.0,524.0,524.0,533.0,533.0,533.0,533.0,548.0,548.0,464.0,464.0,466.0,466.0,466.0,488.0,488.0,488.0,488.0,493.0,493.0,506.0,506.0,506.0,516.0,516.0,516.0,516.0,501.0,501.0,19.0,84.0,70.0,503.0,490.0,464.0
0,511.0,549.0,498.0,508.2888888888889,495.15555555555557,506.8,520.0,549.0,516.0,514.0,514.0,514.0,512.0,512.0,512.0,512.0,510.0,510.0,503.0,503.0,503.0,511.0,511.0,511.0,511.0,520.0,520.0,520.0,511.0,491.0,491.0,491.0,503.0,503.0,503.0,503.0,517.0,517.0,524.0,524.0,524.0,533.0,533.0,533.0,533.0,548.0,548.0,548.0,549.0,466.0,466.0,466.0,488.0,488.0,488.0,488.0,493.0,493.0,506.0,506.0,506.0,516.0,516.0,516.0,516.0,501.0,501.0,501.0,498.0,19.0,85.0,70.0,503.0,491.0,466.0
0,500.0,548.0,527.0,508.4,504.7111111111111,505.22222222222223,520.0,549.0,527.0,512.0,510.0,510.0,503.0,503.0,503.0,511.0,511.0,511.0,511.0,520.0,520.0,520.0,511.0,511.0,511.0,511.0,511.0,500.0,500.0,503.0,517.0,517.0,524.0,524.0,524.0,533.0,533.0,533.0,533.0,548.0,548.0,548.0,549.0,549.0,549.0,549.0,549.0,548.0,548.0,488.0,493.0,493.0,506.0,506.0,506.0,516.0,516.0,516.0,516.0,501.0,501.0,501.0,498.0,498.0,498.0,498.0,498.0,527.0,527.0,20.0,85.0,70.0,500.0,503.0,488.0
0,512.0,551.0,539.0,508.26666666666665,510.1111111111111,505.55555555555554,520.0,551.0,539.0,503.0,503.0,503.0,511.0,511.0,511.0,511.0,520.0,520.0,520.0,511.0,511.0,511.0,511.0,511.0,500.0,500.0,500.0,512.0,512.0,524.0,524.0,524.0,533.0,533.0,533.0,533.0,548.0,548.0,548.0,549.0,549.0,549.0,549.0,549.0,548.0,548.0,548.0,551.0,551.0,506.0,506.0,506.0,516.0,516.0,516.0,516.0,501.0,501.0,501.0,498.0,498.0,498.0,498.0,498.0,527.0,527.0,527.0,539.0,539.0,20.0,87.0,75.0,500.0,524.0,498.0
0,512.0,542.0,523.0,508.4888888888889,515.6,506.3333333333333,520.0,551.0,539.0,511.0,511.0,511.0,511.0,520.0,520.0,520.0,511.0,511.0,511.0,511.0,511.0,500.0,500.0,500.0,512.0,512.0,512.0,512.0,512.0,533.0,533.0,533.0,533.0,548.0,548.0,548.0,549.0,549.0,549.0,549.0,549.0,548.0,548.0,548.0,551.0,551.0,551.0,551.0,542.0,516.0,516.0,516.0,516.0,501.0,501.0,501.0,498.0,498.0,498.0,498.0,498.0,527.0,527.0,527.0,539.0,539.0,539.0,539.0,523.0,20.0,87.0,75.0,500.0,533.0,498.0
0,509.0,534.0,514.0,509.24444444444447,521.9555555555555,506.24444444444447,520.0,551.0,539.0,520.0,520.0,520.0,511.0,511.0,511.0,511.0,511.0,500.0,500.0,500.0,512.0,512.0,512.0,512.0,512.0,512.0,512.0,512.0,509.0,548.0,548.0,548.0,549.0,549.0,549.0,549.0,549.0,548.0,548.0,548.0,551.0,551.0,551.0,551.0,542.0,542.0,542.0,542.0,534.0,501.0,501.0,501.0,498.0,498.0,498.0,498.0,498.0,527.0,527.0,527.0,539.0,539.0,539.0,539.0,523.0,523.0,523.0,523.0,514.0,20.0,79.0,75.0,500.0,534.0,498.0
0,506.0,527.0,529.0,509.75555555555553,526.9777777777778,505.64444444444445,512.0,551.0,539.0,511.0,511.0,511.0,511.0,500.0,500.0,500.0,512.0,512.0,512.0,512.0,512.0,512.0,512.0,512.0,509.0,509.0,509.0,506.0,506.0,549.0,549.0,549.0,549.0,548.0,548.0,548.0,551.0,551.0,551.0,551.0,542.0,542.0,542.0,542.0,534.0,534.0,534.0,527.0,527.0,498.0,498.0,498.0,498.0,527.0,527.0,527.0,539.0,539.0,539.0,539.0,523.0,523.0,523.0,523.0,514.0,514.0,514.0,529.0,529.0,20.0,71.0,75.0,500.0,527.0,498.0
0,507.0,513.0,514.0,509.8666666666667,529.5777777777778,507.55555555555554,512.0,551.0,539.0,511.0,500.0,500.0,500.0,512.0,512.0,512.0,512.0,512.0,512.0,512.0,512.0,509.0,509.0,509.0,506.0,506.0,506.0,506.0,507.0,549.0,548.0,548.0,548.0,551.0,551.0,551.0,551.0,542.0,542.0,542.0,542.0,534.0,534.0,534.0,527.0,527.0,527.0,527.0,513.0,498.0,527.0,527.0,527.0,539.0,539.0,539.0,539.0,523.0,523.0,523.0,523.0,514.0,514.0,514.0,529.0,529.0,529.0,529.0,514.0,20.0,61.0,75.0,500.0,513.0,498.0
0,499.0,502.0,502.0,509.24444444444447,531.0888888888888,511.3777777777778,512.0,551.0,539.0,512.0,512.0,512.0,512.0,512.0,512.0,512.0,512.0,509.0,509.0,509.0,506.0,506.0,506.0,506.0,507.0,507.0,507.0,499.0,499.0,551.0,551.0,551.0,551.0,542.0,542.0,542.0,542.0,534.0,534.0,534.0,527.0,527.0,527.0,527.0,513.0,513.0,513.0,502.0,502.0,539.0,539.0,539.0,539.0,523.0,523.0,523.0,523.0,514.0,514.0,514.0,529.0,529.0,529.0,529.0,514.0,514.0,514.0,502.0,502.0,21.0,60.0,73.0,499.0,502.0,502.0
0,518.0,490.0,512.0,508.8888888888889,530.7333333333333,513.5555555555555,518.0,542.0,529.0,512.0,512.0,512.0,512.0,509.0,509.0,509.0,506.0,506.0,506.0,506.0,507.0,507.0,507.0,499.0,499.0,499.0,499.0,518.0,518.0,542.0,542.0,542.0,542.0,534.0,534.0,534.0,527.0,527.0,527.0,527.0,513.0,513.0,513.0,502.0,502.0,502.0,502.0,490.0,490.0,523.0,523.0,523.0,523.0,514.0,514.0,514.0,529.0,529.0,529.0,529.0,514.0,514.0,514.0,502.0,502.0,502.0,502.0,512.0,512.0,21.0,61.0,51.0,499.0,490.0,502.0
0,507.0,479.0,499.0,509.22222222222223,528.0,514.4888888888889,518.0,534.0,529.0,509.0,509.0,509.0,506.0,506.0,506.0,506.0,507.0,507.0,507.0,499.0,499.0,499.0,499.0,518.0,518.0,518.0,518.0,507.0,507.0,534.0,534.0,534.0,527.0,527.0,527.0,527.0,513.0,513.0,513.0,502.0,502.0,502.0,502.0,490.0,490.0,490.0,490.0,479.0,479.0,514.0,514.0,514.0,529.0,529.0,529.0,529.0,514.0,514.0,514.0,502.0,502.0,502.0,502.0,512.0,512.0,512.0,512.0,499.0,499.0,21.0,72.0,41.0,499.0,479.0,499.0
0,508.0,470.0,487.0,509.3333333333333,524.6,513.5333333333333,518.0,527.0,529.0,506.0,506.0,506.0,506.0,507.0,507.0,507.0,499.0,499.0,499.0,499.0,518.0,518.0,518.0,518.0,507.0,507.0,507.0,507.0,508.0,527.0,527.0,527.0,527.0,513.0,513.0,513.0,502.0,502.0,502.0,502.0,490.0,490.0,490.0,490.0,479.0,479.0,479.0,479.0,470.0,529.0,529.0,529.0,529.0,514.0,514.0,514.0,502.0,502.0,502.0,502.0,512.0,512.0,512.0,512.0,499.0,499.0,499.0,499.0,487.0,21.0,81.0,52.0,499.0,470.0,487.0
0,513.0,463.0,513.0,508.8222222222222,516.6222222222223,512.1333333333333,518.0,513.0,514.0,507.0,507.0,499.0,499.0,499.0,499.0,518.0,518.0,518.0,518.0,507.0,507.0,507.0,507.0,508.0,508.0,508.0,508.0,513.0,513.0,513.0,513.0,502.0,502.0,502.0,502.0,490.0,490.0,490.0,490.0,479.0,479.0,479.0,479.0,470.0,470.0,470.0,470.0,463.0,463.0,514.0,514.0,502.0,502.0,502.0,502.0,512.0,512.0,512.0,512.0,499.0,499.0,499.0,499.0,487.0,487.0,487.0,487.0,513.0,513.0,21.0,88.0,52.0,499.0,463.0,487.0
0,505.0,467.0,526.0,508.4,511.0888888888889,513.6444444444444,518.0,502.0,526.0,499.0,499.0,499.0,518.0,518.0,518.0,518.0,507.0,507.0,507.0,507.0,508.0,508.0,508.0,508.0,513.0,513.0,513.0,505.0,505.0,502.0,502.0,502.0,490.0,490.0,490.0,490.0,479.0,479.0,479.0,479.0,470.0,470.0,470.0,470.0,463.0,463.0,463.0,467.0,467.0,502.0,502.0,502.0,512.0,512.0,512.0,512.0,499.0,499.0,499.0,499.0,487.0,487.0,487.0,487.0,513.0,513.0,513.0,526.0,526.0,19.0,88.0,52.0,499.0,463.0,487.0
0,509.0,475.0,515.0,508.2888888888889,504.1777777777778,515.0,518.0,490.0,526.0,518.0,518.0,518.0,507.0,507.0,507.0,507.0,508.0,508.0,508.0,508.0,513.0,513.0,513.0,505.0,505.0,505.0,505.0,509.0,509.0,490.0,490.0,490.0,479.0,479.0,479.0,479.0,470.0,470.0,470.0,470.0,463.0,463.0,463.0,467.0,467.0,467.0,467.0,475.0,475.0,512.0,512.0,512.0,499.0,499.0,499.0,499.0,487.0,487.0,487.0,487.0,513.0,513.0,513.0,526.0,526.0,526.0,526.0,515.0,515.0,19.0,88.0,52.0,505.0,463.0,487.0
0,509.0,476.0,492.0,508.6222222222222,499.31111111111113,512.4,513.0,479.0,526.0,507.0,507.0,507.0,507.0,508.0,508.0,508.0,508.0,513.0,513.0,513.0,505.0,505.0,505.0,505.0,509.0,509.0,509.0,509.0,509.0,479.0,479.0,479.0,479.0,470.0,470.0,470.0,470.0,463.0,463.0,463.0,467.0,467.0,467.0,467.0,475.0,475.0,476.0,476.0,476.0,499.0,499.0,499.0,499.0,487.0,487.0,487.0,487.0,513.0,513.0,513.0,526.0,526.0,526.0,526.0,515.0,515.0,492.0,492.0,492.0,19.0,88.0,52.0,505.0,463.0,487.0
0,502.0,481.0,515.0,508.1111111111111,494.53333333333336,510.2888888888889,513.0,481.0,526.0,507.0,508.0,508.0,508.0,508.0,513.0,513.0,513.0,505.0,505.0,505.0,505.0,509.0,509.0,509.0,509.0,509.0,509.0,502.0,502.0,479.0,470.0,470.0,470.0,470.0,463.0,463.0,463.0,467.0,467.0,467.0,467.0,475.0,475.0,476.0,476.0,476.0,476.0,481.0,481.0,499.0,487.0,487.0,487.0,487.0,513.0,513.0,513.0,526.0,526.0,526.0,526.0,515.0,515.0,492.0,492.0,492.0,492.0,515.0,515.0,19.0,79.0,42.0,502.0,463.0,487.0
0,504.0,490.0,545.0,507.53333333333336,490.8666666666667,511.0888888888889,513.0,490.0,545.0,508.0,508.0,513.0,513.0,513.0,505.0,505.0,505.0,505.0,509.0,509.0,509.0,509.0,509.0,509.0,502.0,502.0,502.0,504.0,504.0,470.0,470.0,463.0,463.0,463.0,467.0,467.0,467.0,467.0,475.0,475.0,476.0,476.0,476.0,476.0,481.0,481.0,481.0,490.0,490.0,487.0,487.0,513.0,513.0,513.0,526.0,526.0,526.0,526.0,515.0,515.0,492.0,492.0,492.0,492.0,515.0,515.0,515.0,545.0,545.0,19.0,79.0,58.0,502.0,463.0,487.0
0,505.0,501.0,542.0,507.06666666666666,487.26666666666665,513.5111111111111,513.0,501.0,545.0,513.0,505.0,505.0,505.0,505.0,509.0,509.0,509.0,509.0,509.0,509.0,502.0,502.0,502.0,504.0,504.0,504.0,504.0,505.0,505.0,463.0,467.0,467.0,467.0,467.0,475.0,475.0,476.0,476.0,476.0,476.0,481.0,481.0,481.0,490.0,490.0,490.0,490.0,501.0,501.0,513.0,526.0,526.0,526.0,526.0,515.0,515.0,492.0,492.0,492.0,492.0,515.0,515.0,515.0,545.0,545.0,545.0,545.0,542.0,542.0,19.0,64.0,58.0,502.0,463.0,492.0
0,517.0,510.0,488.0,507.26666666666665,485.73333333333335,513.1777777777778,517.0,510.0,545.0,505.0,505.0,509.0,509.0,509.0,509.0,509.0,509.0,502.0,502.0,502.0,504.0,504.0,504.0,504.0,505.0,505.0,505.0,505.0,517.0,467.0,467.0,475.0,475.0,476.0,476.0,476.0,476.0,481.0,481.0,481.0,490.0,490.0,490.0,490.0,501.0,501.0,501.0,501.0,510.0,526.0,526.0,515.0,515.0,492.0,492.0,492.0,492.0,515.0,515.0,515.0,545.0,545.0,545.0,545.0,542.0,542.0,542.0,542.0,488.0,19.0,64.0,58.0,502.0,467.0,488.0
0,512.0,517.0,457.0,507.9555555555556,485.46666666666664,509.15555555555557,517.0,517.0,545.0,509.0,509.0,509.0,509.0,502.0,502.0,502.0,504.0,504.0,504.0,504.0,505.0,505.0,505.0,505.0,517.0,517.0,517.0,512.0,512.0,476.0,476.0,476.0,476.0,481.0,481.0,481.0,490.0,490.0,490.0,490.0,501.0,501.0,501.0,501.0,510.0,510.0,510.0,517.0,517.0,492.0,492.0,492.0,492.0,515.0,515.0,515.0,545.0,545.0,545.0,545.0,542.0,542.0,542.0,542.0,488.0,488.0,488.0,457.0,457.0,19.0,54.0,88.0,502.0,476.0,457.0
0,508.0,531.0,497.0,508.73333333333335,486.77777777777777,507.0444444444444,517.0,531.0,545.0,509.0,502.0,502.0,502.0,504.0,504.0,504.0,504.0,505.0,505.0,505.0,505.0,517.0,517.0,517.0,512.0,512.0,512.0,512.0,508.0,476.0,481.0,481.0,481.0,490.0,490.0,490.0,490.0,501.0,501.0,501.0,501.0,510.0,510.0,510.0,517.0,517.0,517.0,517.0,531.0,492.0,515.0,515.0,515.0,545.0,545.0,545.0,545.0,542.0,542.0,542.0,542.0,488.0,488.0,488.0,457.0,457.0,457.0,457.0,497.0,19.0,68.0,88.0,502.0,476.0,457.0
0,513.0,541.0,538.0,508.8222222222222,488.55555555555554,507.5111111111111,517.0,541.0,545.0,502.0,502.0,504.0,504.0,504.0,504.0,505.0,505.0,505.0,505.0,517.0,517.0,517.0,512.0,512.0,512.0,512.0,508.0,508.0,513.0,481.0,481.0,490.0,490.0,490.0,490.0,501.0,501.0,501.0,501.0,510.0,510.0,510.0,517.0,517.0,517.0,517.0,531.0,531.0,541.0,515.0,515.0,545.0,545.0,545.0,545.0,542.0,542.0,542.0,542.0,488.0,488.0,488.0,457.0,457.0,457.0,457.0,497.0,497.0,538.0,16.0,78.0,88.0,502.0,481.0,457.0
0,510.0,545.0,528.0,508.35555555555555,492.1333333333333,508.8,517.0,545.0,545.0,504.0,504.0,504.0,505.0,505.0,505.0,505.0,517.0,517.0,517.0,512.0,512.0,512.0,512.0,508.0,508.0,513.0,513.0,510.0,510.0,490.0,490.0,490.0,501.0,501.0,501.0,501.0,510.0,510.0,510.0,517.0,517.0,517.0,517.0,531.0,531.0,541.0,541.0,545.0,545.0,545.0,545.0,545.0,542.0,542.0,542.0,542.0,488.0,488.0,488.0,457.0,457.0,457.0,457.0,497.0,497.0,538.0,538.0,528.0,528.0,15.0,82.0,88.0,504.0,490.0,457.0
0,505.0,547.0,504.0,508.3333333333333,496.6222222222222,509.6666666666667,517.0,547.0,542.0,505.0,505.0,505.0,505.0,517.0,517.0,517.0,512.0,512.0,512.0,512.0,508.0,508.0,513.0,513.0,510.0,510.0,510.0,505.0,505.0,501.0,501.0,501.0,501.0,510.0,510.0,510.0,517.0,517.0,517.0,517.0,531.0,531.0,541.0,541.0,545.0,545.0,545.0,547.0,547.0,542.0,542.0,542.0,542.0,488.0,488.0,488.0,457.0,457.0,457.0,457.0,497.0,497.0,538.0,538.0,528.0,528.0,528.0,504.0,504.0,15.0,84.0,88.0,505.0,501.0,457.0
0,511.0,554.0,477.0,508.4222222222222,501.8666666666667,509.3333333333333,517.0,554.0,542.0,505.0,517.0,517.0,517.0,512.0,512.0,512.0,512.0,508.0,508.0,513.0,513.0,510.0,510.0,510.0,505.0,505.0,505.0,511.0,511.0,501.0,510.0,510.0,510.0,517.0,517.0,517.0,517.0,531.0,531.0,541.0,541.0,545.0,545.0,545.0,547.0,547.0,547.0,554.0,554.0,542.0,488.0,488.0,488.0,457.0,457.0,457.0,457.0,497.0,497.0,538.0,538.0,528.0,528.0,528.0,504.0,504.0,504.0,477.0,477.0,15.0,91.0,88.0,505.0,501.0,457.0
0,513.0,548.0,475.0,508.6,505.46666666666664,508.84444444444443,517.0,554.0,538.0,517.0,517.0,512.0,512.0,512.0,512.0,508.0,508.0,513.0,513.0,510.0,510.0,510.0,505.0,505.0,505.0,511.0,511.0,511.0,513.0,510.0,510.0,517.0,517.0,517.0,517.0,531.0,531.0,541.0,541.0,545.0,545.0,545.0,547.0,547.0,547.0,554.0,554.0,554.0,548.0,488.0,488.0,457.0,457.0,457.0,457.0,497.0,497.0,538.0,538.0,528.0,528.0,528.0,504.0,504.0,504.0,477.0,477.0,477.0,475.0,15.0,91.0,88.0,505.0,510.0,457.0
0,505.0,538.0,538.0,508.77777777777777,514.5111111111111,505.44444444444446,513.0,554.0,538.0,512.0,508.0,508.0,513.0,513.0,510.0,510.0,510.0,505.0,505.0,505.0,511.0,511.0,511.0,513.0,513.0,513.0,513.0,513.0,505.0,517.0,531.0,531.0,541.0,541.0,545.0,545.0,545.0,547.0,547.0,547.0,554.0,554.0,554.0,548.0,548.0,548.0,548.0,548.0,538.0,457.0,497.0,497.0,538.0,538.0,528.0,528.0,528.0,504.0,504.0,504.0,477.0,477.0,477.0,475.0,475.0,475.0,475.0,475.0,538.0,15.0,87.0,88.0,505.0,517.0,457.0
0,507.0,529.0,558.0,508.68888888888887,520.0666666666667,507.8888888888889,513.0,554.0,558.0,513.0,510.0,510.0,510.0,505.0,505.0,505.0,511.0,511.0,511.0,513.0,513.0,513.0,513.0,513.0,505.0,505.0,505.0,507.0,507.0,541.0,545.0,545.0,545.0,547.0,547.0,547.0,554.0,554.0,554.0,548.0,548.0,548.0,548.0,548.0,538.0,538.0,538.0,529.0,529.0,538.0,528.0,528.0,528.0,504.0,504.0,504.0,477.0,477.0,477.0,475.0,475.0,475.0,475.0,475.0,538.0,538.0,538.0,558.0,558.0,15.0,78.0,101.0,505.0,529.0,475.0
0,505.0,520.0,517.0,508.5111111111111,523.4,511.3777777777778,513.0,554.0,558.0,510.0,505.0,505.0,505.0,511.0,511.0,511.0,513.0,513.0,513.0,513.0,513.0,505.0,505.0,505.0,507.0,507.0,507.0,507.0,505.0,545.0,547.0,547.0,547.0,554.0,554.0,554.0,548.0,548.0,548.0,548.0,548.0,538.0,538.0,538.0,529.0,529.0,529.0,529.0,520.0,528.0,504.0,504.0,504.0,477.0,477.0,477.0,475.0,475.0,475.0,475.0,475.0,538.0,538.0,538.0,558.0,558.0,558.0,558.0,517.0,15.0,78.0,101.0,505.0,520.0,475.0
0,505.0,520.0,517.0,508.55555555555554,526.1111111111111,512.0222222222222,513.0,554.0,558.0,505.0,511.0,511.0,511.0,513.0,513.0,513.0,513.0,513.0,505.0,505.0,505.0,507.0,507.0,507.0,507.0,505.0,505.0,505.0,505.0,547.0,554.0,554.0,554.0,548.0,548.0,548.0,548.0,548.0,538.0,538.0,538.0,529.0,529.0,529.0,529.0,520.0,520.0,520.0,520.0,504.0,477.0,477.0,477.0,475.0,475.0,475.0,475.0,475.0,538.0,538.0,538.0,558.0,558.0,558.0,558.0,517.0,517.0,517.0,517.0,15.0,73.0,101.0,505.0,520.0,475.0
0,516.0,495.0,508.0,509.53333333333336,527.4666666666667,508.68888888888887,516.0,548.0,558.0,513.0,513.0,513.0,513.0,513.0,505.0,505.0,505.0,507.0,507.0,507.0,507.0,505.0,505.0,505.0,505.0,513.0,513.0,516.0,516.0,548.0,548.0,548.0,548.0,548.0,538.0,538.0,538.0,529.0,529.0,529.0,529.0,520.0,520.0,520.0,520.0,511.0,511.0,495.0,495.0,475.0,475.0,475.0,475.0,475.0,538.0,538.0,538.0,558.0,558.0,558.0,558.0,517.0,517.0,517.0,517.0,492.0,492.0,508.0,508.0,13.0,64.0,101.0,505.0,495.0,475.0
0,504.0,482.0,560.0,510.02222222222224,527.0222222222222,507.5111111111111,516.0,548.0,560.0,513.0,513.0,505.0,505.0,505.0,507.0,507.0,507.0,507.0,505.0,505.0,505.0,505.0,513.0,513.0,516.0,516.0,516.0,516.0,504.0,548.0,548.0,538.0,538.0,538.0,529.0,529.0,529.0,529.0,520.0,520.0,520.0,520.0,511.0,511.0,495.0,495.0,495.0,495.0,482.0,475.0,475.0,538.0,538.0,538.0,558.0,558.0,558.0,558.0,517.0,517.0,517.0,517.0,492.0,492.0,508.0,508.0,508.0,508.0,560.0,13.0,72.0,103.0,504.0,482.0,475.0
0,504.0,478.0,545.0,509.4,524.8444444444444,511.1777777777778,516.0,538.0,560.0,505.0,507.0,507.0,507.0,507.0,505.0,505.0,505.0,505.0,513.0,513.0,516.0,516.0,516.0,516.0,504.0,504.0,504.0,504.0,504.0,538.0,529.0,529.0,529.0,529.0,520.0,520.0,520.0,520.0,511.0,511.0,495.0,495.0,495.0,495.0,482.0,482.0,482.0,482.0,478.0,538.0,558.0,558.0,558.0,558.0,517.0,517.0,517.0,517.0,492.0,492.0,508.0,508.0,508.0,508.0,560.0,560.0,560.0,560.0,545.0,13.0,76.0,103.0,504.0,478.0,492.0
0,506.0,472.0,489.0,508.84444444444443,522.1333333333333,513.8666666666667,516.0,529.0,560.0,507.0,507.0,505.0,505.0,505.0,505.0,513.0,513.0,516.0,516.0,516.0,516.0,504.0,504.0,504.0,504.0,504.0,504.0,506.0,506.0,529.0,529.0,520.0,520.0,520.0,520.0,511.0,511.0,495.0,495.0,495.0,495.0,482.0,482.0,482.0,482.0,478.0,478.0,472.0,472.0,558.0,558.0,517.0,517.0,517.0,517.0,492.0,492.0,508.0,508.0,508.0,508.0,560.0,560.0,560.0,560.0,545.0,545.0,489.0,489.0,12.0,82.0,103.0,504.0,472.0,489.0
0,517.0,466.0,453.0,508.97777777777776,517.2444444444444,513.3333333333334,517.0,520.0,560.0,505.0,505.0,513.0,513.0,516.0,516.0,516.0,516.0,504.0,504.0,504.0,504.0,504.0,504.0,506.0,506.0,506.0,506.0,517.0,517.0,520.0,520.0,511.0,511.0,495.0,495.0,495.0,495.0,482.0,482.0,482.0,482.0,478.0,478.0,472.0,472.0,472.0,472.0,466.0,466.0,517.0,517.0,492.0,492.0,508.0,508.0,508.0,508.0,560.0,560.0,560.0,560.0,545.0,545.0,489.0,489.0,489.0,489.0,453.0,453.0,13.0,88.0,107.0,504.0,466.0,453.0
0,502.0,470.0,477.0,508.64444444444445,512.3333333333334,508.9555555555556,517.0,511.0,560.0,513.0,516.0,516.0,516.0,516.0,504.0,504.0,504.0,504.0,504.0,504.0,506.0,506.0,506.0,506.0,517.0,517.0,517.0,502.0,502.0,511.0,495.0,495.0,495.0,495.0,482.0,482.0,482.0,482.0,478.0,478.0,472.0,472.0,472.0,472.0,466.0,466.0,466.0,470.0,470.0,492.0,508.0,508.0,508.0,508.0,560.0,560.0,560.0,560.0,545.0,545.0,489.0,489.0,489.0,489.0,453.0,453.0,453.0,477.0,477.0,15.0,88.0,107.0,502.0,466.0,453.0
0,515.0,477.0,517.0,508.73333333333335,505.8888888888889,507.26666666666665,517.0,495.0,560.0,516.0,504.0,504.0,504.0,504.0,504.0,504.0,506.0,506.0,506.0,506.0,517.0,517.0,517.0,502.0,502.0,502.0,502.0,515.0,515.0,495.0,482.0,482.0,482.0,482.0,478.0,478.0,472.0,472.0,472.0,472.0,466.0,466.0,466.0,470.0,470.0,470.0,470.0,477.0,477.0,508.0,560.0,560.0,560.0,560.0,545.0,545.0,489.0,489.0,489.0,489.0,453.0,453.0,453.0,477.0,477.0,477.0,477.0,517.0,517.0,15.0,88.0,107.0,502.0,466.0,453.0
0,503.0,476.0,509.0,508.73333333333335,497.5777777777778,510.8,517.0,478.0,545.0,504.0,504.0,506.0,506.0,506.0,506.0,517.0,517.0,517.0,502.0,502.0,502.0,502.0,515.0,515.0,515.0,515.0,515.0,503.0,503.0,478.0,478.0,472.0,472.0,472.0,472.0,466.0,466.0,466.0,470.0,470.0,470.0,470.0,477.0,477.0,477.0,477.0,477.0,476.0,476.0,545.0,545.0,489.0,489.0,489.0,489.0,453.0,453.0,453.0,477.0,477.0,477.0,477.0,517.0,517.0,517.0,517.0,517.0,509.0,509.0,15.0,82.0,107.0,502.0,466.0,453.0
0,512.0,483.0,533.0,508.26666666666665,492.93333333333334,513.6,517.0,483.0,533.0,506.0,506.0,506.0,517.0,517.0,517.0,502.0,502.0,502.0,502.0,515.0,515.0,515.0,515.0,515.0,503.0,503.0,503.0,503.0,512.0,472.0,472.0,472.0,466.0,466.0,466.0,470.0,470.0,470.0,470.0,477.0,477.0,477.0,477.0,477.0,476.0,476.0,476.0,476.0,483.0,489.0,489.0,489.0,453.0,453.0,453.0,477.0,477.0,477.0,477.0,517.0,517.0,517.0,517.0,517.0,509.0,509.0,509.0,509.0,533.0,15.0,82.0,107.0,502.0,466.0,453.0
0,512.0,495.0,505.0,508.55555555555554,489.5777777777778,513.4222222222222,517.0,495.0,533.0,517.0,517.0,517.0,502.0,502.0,502.0,502.0,515.0,515.0,515.0,515.0,515.0,503.0,503.0,503.0,503.0,512.0,512.0,512.0,512.0,466.0,466.0,466.0,470.0,470.0,470.0,470.0,477.0,477.0,477.0,477.0,477.0,476.0,476.0,476.0,476.0,483.0,483.0,495.0,495.0,453.0,453.0,453.0,477.0,477.0,477.0,477.0,517.0,517.0,517.0,517.0,517.0,509.0,509.0,509.0,509.0,533.0,533.0,505.0,505.0,15.0,72.0,107.0,502.0,466.0,453.0
0,504.0,504.0,474.0,508.5777777777778,487.5111111111111,508.9555555555556,515.0,504.0,533.0,502.0,502.0,502.0,502.0,515.0,515.0,515.0,515.0,515.0,503.0,503.0,503.0,503.0,512.0,512.0,512.0,512.0,512.0,504.0,504.0,470.0,470.0,470.0,470.0,477.0,477.0,477.0,477.0,477.0,476.0,476.0,476.0,476.0,483.0,483.0,495.0,495.0,495.0,504.0,504.0,477.0,477.0,477.0,477.0,517.0,517.0,517.0,517.0,517.0,509.0,509.0,509.0,509.0,533.0,533.0,505.0,505.0,505.0,474.0,474.0,15.0,63.0,107.0,502.0,470.0,474.0
0,512.0,513.0,516.0,508.77777777777777,486.44444444444446,506.1333333333333,515.0,513.0,533.0,502.0,515.0,515.0,515.0,515.0,515.0,503.0,503.0,503.0,503.0,512.0,512.0,512.0,512.0,512.0,504.0,504.0,504.0,512.0,512.0,470.0,477.0,477.0,477.0,477.0,477.0,476.0,476.0,476.0,476.0,483.0,483.0,495.0,495.0,495.0,504.0,504.0,504.0,513.0,513.0,477.0,517.0,517.0,517.0,517.0,517.0,509.0,509.0,509.0,509.0,533.0,533.0,505.0,505.0,505.0,474.0,474.0,474.0,516.0,516.0,15.0,54.0,107.0,502.0,470.0,474.0
0,512.0,513.0,516.0,509.0888888888889,486.1333333333333,506.0888888888889,515.0,513.0,533.0,515.0,515.0,515.0,515.0,503.0,503.0,503.0,503.0,512.0,512.0,512.0,512.0,512.0,504.0,504.0,504.0,512.0,512.0,512.0,512.0,477.0,477.0,477.0,477.0,476.0,476.0,476.0,476.0,483.0,483.0,495.0,495.0,495.0,504.0,504.0,504.0,513.0,513.0,513.0,513.0,517.0,517.0,517.0,517.0,509.0,509.0,509.0,509.0,533.0,533.0,505.0,505.0,505.0,474.0,474.0,474.0,516.0,516.0,516.0,516.0,15.0,54.0,107.0,503.0,476.0,474.0
0,513.0,542.0,497.0,509.4222222222222,488.2888888888889,506.68888888888887,518.0,542.0,533.0,503.0,503.0,503.0,503.0,512.0,512.0,512.0,512.0,512.0,504.0,504.0,504.0,512.0,512.0,512.0,512.0,518.0,518.0,513.0,513.0,476.0,476.0,476.0,476.0,483.0,483.0,495.0,495.0,495.0,504.0,504.0,504.0,513.0,513.0,513.0,513.0,525.0,525.0,542.0,542.0,509.0,509.0,509.0,509.0,533.0,533.0,505.0,505.0,505.0,474.0,474.0,474.0,516.0,516.0,516.0,516.0,521.0,521.0,497.0,497.0,16.0,76.0,107.0,503.0,476.0,474.0
0,513.0,543.0,467.0,509.4222222222222,492.8,503.22222222222223,518.0,543.0,533.0,512.0,512.0,512.0,512.0,512.0,504.0,504.0,504.0,512.0,512.0,512.0,512.0,518.0,518.0,513.0,513.0,513.0,513.0,513.0,513.0,483.0,483.0,495.0,495.0,495.0,504.0,504.0,504.0,513.0,513.0,513.0,513.0,525.0,525.0,542.0,542.0,542.0,542.0,543.0,543.0,533.0,533.0,505.0,505.0,505.0,474.0,474.0,474.0,516.0,516.0,516.0,516.0,521.0,521.0,497.0,497.0,497.0,497.0,467.0,467.0,16.0,77.0,107.0,504.0,483.0,467.0
0,510.0,552.0,466.0,510.0888888888889,498.7111111111111,495.24444444444447,518.0,552.0,521.0,512.0,504.0,504.0,504.0,512.0,512.0,512.0,512.0,518.0,518.0,513.0,513.0,513.0,513.0,513.0,513.0,513.0,513.0,510.0,510.0,495.0,504.0,504.0,504.0,513.0,513.0,513.0,513.0,525.0,525.0,542.0,542.0,542.0,542.0,543.0,543.0,543.0,543.0,552.0,552.0,505.0,474.0,474.0,474.0,516.0,516.0,516.0,516.0,521.0,521.0,497.0,497.0,497.0,497.0,467.0,467.0,467.0,467.0,466.0,466.0,16.0,86.0,92.0,504.0,495.0,466.0
0,510.0,551.0,489.0,510.31111111111113,502.1111111111111,493.4888888888889,518.0,552.0,521.0,504.0,504.0,512.0,512.0,512.0,512.0,518.0,518.0,513.0,513.0,513.0,513.0,513.0,513.0,513.0,513.0,510.0,510.0,510.0,510.0,504.0,504.0,513.0,513.0,513.0,513.0,525.0,525.0,542.0,542.0,542.0,542.0,543.0,543.0,543.0,543.0,552.0,552.0,552.0,551.0,474.0,474.0,516.0,516.0,516.0,516.0,521.0,521.0,497.0,497.0,497.0,497.0,467.0,467.0,467.0,467.0,466.0,466.0,466.0,489.0,16.0,86.0,80.0,504.0,504.0,466.0
0,510.0,549.0,536.0,510.5777777777778,507.3333333333333,494.53333333333336,518.0,552.0,536.0,512.0,512.0,512.0,518.0,518.0,513.0,513.0,513.0,513.0,513.0,513.0,513.0,513.0,510.0,510.0,510.0,510.0,510.0,510.0,510.0,513.0,513.0,513.0,525.0,525.0,542.0,542.0,542.0,542.0,543.0,543.0,543.0,543.0,552.0,552.0,552.0,551.0,551.0,551.0,549.0,516.0,516.0,516.0,521.0,521.0,497.0,497.0,497.0,497.0,467.0,467.0,467.0,467.0,466.0,466.0,466.0,489.0,489.0,489.0,536.0,16.0,86.0,83.0,510.0,513.0,466.0
0,510.0,542.0,523.0,510.46666666666664,516.0666666666667,502.1111111111111,513.0,552.0,536.0,513.0,513.0,513.0,513.0,513.0,513.0,513.0,513.0,510.0,510.0,510.0,510.0,510.0,510.0,510.0,510.0,510.0,510.0,510.0,510.0,542.0,542.0,542.0,542.0,543.0,543.0,543.0,543.0,552.0,552.0,552.0,551.0,551.0,551.0,549.0,549.0,549.0,549.0,542.0,542.0,497.0,497.0,497.0,497.0,467.0,467.0,467.0,467.0,466.0,466.0,466.0,489.0,489.0,489.0,536.0,536.0,536.0,536.0,523.0,523.0,16.0,82.0,70.0,510.0,542.0,466.0
0,508.0,532.0,522.0,510.6222222222222,520.2666666666667,504.24444444444447,513.0,552.0,536.0,513.0,513.0,513.0,513.0,513.0,510.0,510.0,510.0,510.0,510.0,510.0,510.0,510.0,510.0,510.0,510.0,510.0,510.0,508.0,508.0,542.0,543.0,543.0,543.0,543.0,552.0,552.0,552.0,551.0,551.0,551.0,549.0,549.0,549.0,549.0,542.0,542.0,542.0,532.0,532.0,497.0,467.0,467.0,467.0,467.0,466.0,466.0,466.0,489.0,489.0,489.0,536.0,536.0,536.0,536.0,523.0,523.0,523.0,522.0,522.0,15.0,76.0,70.0,508.0,532.0,466.0
0,507.0,521.0,490.0,510.1333333333333,523.6888888888889,503.8666666666667,513.0,552.0,536.0,513.0,513.0,510.0,510.0,510.0,510.0,510.0,510.0,510.0,510.0,510.0,510.0,510.0,510.0,510.0,508.0,508.0,508.0,508.0,507.0,543.0,543.0,552.0,552.0,552.0,551.0,551.0,551.0,549.0,549.0,549.0,549.0,542.0,542.0,542.0,532.0,532.0,532.0,532.0,521.0,467.0,467.0,466.0,466.0,466.0,489.0,489.0,489.0,536.0,536.0,536.0,536.0,523.0,523.0,523.0,522.0,522.0,522.0,522.0,490.0,15.0,76.0,70.0,507.0,521.0,466.0
0,512.0,511.0,484.0,510.35555555555555,526.2222222222222,502.15555555555557,512.0,552.0,536.0,510.0,510.0,510.0,510.0,510.0,510.0,510.0,510.0,510.0,510.0,510.0,510.0,508.0,508.0,508.0,508.0,507.0,507.0,512.0,512.0,552.0,552.0,551.0,551.0,551.0,549.0,549.0,549.0,549.0,542.0,542.0,542.0,532.0,532.0,532.0,532.0,521.0,521.0,511.0,511.0,466.0,466.0,489.0,489.0,489.0,536.0,536.0,536.0,536.0,523.0,523.0,523.0,522.0,522.0,522.0,522.0,490.0,490.0,484.0,484.0,15.0,76.0,70.0,507.0,511.0,466.0
0,501.0,502.0,524.0,510.26666666666665,528.6222222222223,500.64444444444445,512.0,551.0,536.0,510.0,510.0,510.0,510.0,510.0,510.0,510.0,510.0,508.0,508.0,508.0,508.0,507.0,507.0,512.0,512.0,512.0,512.0,501.0,501.0,551.0,549.0,549.0,549.0,549.0,542.0,542.0,542.0,532.0,532.0,532.0,532.0,521.0,521.0,511.0,511.0,511.0,511.0,502.0,502.0,489.0,536.0,536.0,536.0,536.0,523.0,523.0,523.0,522.0,522.0,522.0,522.0,490.0,490.0,484.0,484.0,484.0,484.0,524.0,524.0,17.0,57.0,70.0,501.0,502.0,484.0
0,504.0,488.0,557.0,509.6,528.7777777777778,502.64444444444445,512.0,549.0,557.0,510.0,510.0,510.0,510.0,510.0,508.0,508.0,508.0,508.0,507.0,507.0,512.0,512.0,512.0,512.0,501.0,501.0,501.0,501.0,504.0,549.0,549.0,542.0,542.0,542.0,532.0,532.0,532.0,532.0,521.0,521.0,511.0,511.0,511.0,511.0,502.0,502.0,502.0,502.0,488.0,536.0,536.0,523.0,523.0,523.0,522.0,522.0,522.0,522.0,490.0,490.0,484.0,484.0,484.0,484.0,524.0,524.0,524.0,524.0,557.0,17.0,64.0,91.0,501.0,488.0,484.0
0,509.0,476.0,537.0,509.7111111111111,527.4444444444445,507.73333333333335,512.0,542.0,557.0,510.0,510.0,508.0,508.0,508.0,508.0,507.0,507.0,512.0,512.0,512.0,512.0,501.0,501.0,501.0,501.0,504.0,504.0,504.0,509.0,542.0,542.0,532.0,532.0,532.0,532.0,521.0,521.0,511.0,511.0,511.0,511.0,502.0,502.0,502.0,502.0,488.0,488.0,488.0,476.0,523.0,523.0,522.0,522.0,522.0,522.0,490.0,490.0,484.0,484.0,484.0,484.0,524.0,524.0,524.0,524.0,557.0,557.0,557.0,537.0,17.0,76.0,91.0,501.0,476.0,484.0
0,501.0,467.0,500.0,509.0888888888889,523.7555555555556,507.9555555555556,512.0,532.0,557.0,508.0,508.0,507.0,507.0,512.0,512.0,512.0,512.0,501.0,501.0,501.0,501.0,504.0,504.0,504.0,509.0,509.0,509.0,501.0,501.0,532.0,532.0,521.0,521.0,511.0,511.0,511.0,511.0,502.0,502.0,502.0,502.0,488.0,488.0,488.0,476.0,476.0,476.0,467.0,467.0,522.0,522.0,490.0,490.0,484.0,484.0,484.0,484.0,524.0,524.0,524.0,524.0,557.0,557.0,557.0,537.0,537.0,537.0,500.0,500.0,17.0,85.0,91.0,501.0,467.0,484.0
0,509.0,465.0,479.0,508.15555555555557,517.7555555555556,506.22222222222223,512.0,511.0,557.0,512.0,512.0,512.0,512.0,501.0,501.0,501.0,501.0,504.0,504.0,504.0,509.0,509.0,509.0,501.0,501.0,501.0,501.0,509.0,509.0,511.0,511.0,511.0,511.0,502.0,502.0,502.0,502.0,488.0,488.0,488.0,476.0,476.0,476.0,467.0,467.0,467.0,467.0,465.0,465.0,484.0,484.0,484.0,484.0,524.0,524.0,524.0,524.0,557.0,557.0,557.0,537.0,537.0,537.0,500.0,500.0,500.0,500.0,479.0,479.0,12.0,87.0,91.0,501.0,465.0,479.0
0,505.0,471.0,484.0,507.7111111111111,512.8666666666667,505.9111111111111,512.0,511.0,557.0,512.0,501.0,501.0,501.0,501.0,504.0,504.0,504.0,509.0,509.0,509.0,501.0,501.0,501.0,501.0,509.0,509.0,509.0,505.0,505.0,511.0,502.0,502.0,502.0,502.0,488.0,488.0,488.0,476.0,476.0,476.0,467.0,467.0,467.0,467.0,465.0,465.0,465.0,471.0,471.0,484.0,524.0,524.0,524.0,524.0,557.0,557.0,557.0,537.0,537.0,537.0,500.0,500.0,500.0,500.0,479.0,479.0,479.0,484.0,484.0,12.0,87.0,91.0,501.0,465.0,479.0
0,505.0,471.0,484.0,507.35555555555555,509.6666666666667,506.6666666666667,509.0,502.0,557.0,501.0,501.0,501.0,504.0,504.0,504.0,509.0,509.0,509.0,501.0,501.0,501.0,501.0,509.0,509.0,509.0,505.0,505.0,505.0,505.0,502.0,502.0,502.0,488.0,488.0,488.0,476.0,476.0,476.0,467.0,467.0,467.0,467.0,465.0,465.0,465.0,471.0,471.0,471.0,471.0,524.0,524.0,524.0,557.0,557.0,557.0,537.0,537.0,537.0,500.0,500.0,500.0,500.0,479.0,479.0,479.0,484.0,484.0,484.0,484.0,12.0,87.0,91.0,501.0,465.0,479.0
0,502.0,470.0,548.0,506.75555555555553,504.4,512.1111111111111,509.0,488.0,557.0,504.0,504.0,504.0,509.0,509.0,509.0,501.0,501.0,501.0,501.0,509.0,509.0,509.0,505.0,505.0,505.0,505.0,502.0,502.0,505.0,488.0,488.0,488.0,476.0,476.0,476.0,467.0,467.0,467.0,467.0,465.0,465.0,465.0,471.0,471.0,471.0,471.0,470.0,470.0,476.0,557.0,557.0,557.0,537.0,537.0,537.0,500.0,500.0,500.0,500.0,479.0,479.0,479.0,484.0,484.0,484.0,484.0,548.0,548.0,573.0,11.0,87.0,91.0,501.0,465.0,479.0
0,505.0,476.0,573.0,506.4222222222222,499.3777777777778,518.2222222222222,509.0,476.0,573.0,509.0,509.0,509.0,501.0,501.0,501.0,501.0,509.0,509.0,509.0,505.0,505.0,505.0,505.0,502.0,502.0,502.0,505.0,505.0,505.0,476.0,476.0,476.0,467.0,467.0,467.0,467.0,465.0,465.0,465.0,471.0,471.0,471.0,471.0,470.0,470.0,470.0,476.0,476.0,476.0,537.0,537.0,537.0,500.0,500.0,500.0,500.0,479.0,479.0,479.0,484.0,484.0,484.0,484.0,548.0,548.0,548.0,573.0,573.0,573.0,11.0,86.0,94.0,501.0,465.0,479.0
0,509.0,491.0,471.0,506.1111111111111,493.8222222222222,515.9777777777778,509.0,491.0,573.0,501.0,501.0,501.0,509.0,509.0,509.0,505.0,505.0,505.0,505.0,502.0,502.0,502.0,505.0,505.0,505.0,504.0,504.0,509.0,509.0,467.0,467.0,467.0,465.0,465.0,465.0,471.0,471.0,471.0,471.0,470.0,470.0,470.0,476.0,476.0,476.0,483.0,483.0,491.0,491.0,500.0,500.0,500.0,479.0,479.0,479.0,484.0,484.0,484.0,484.0,548.0,548.0,548.0,573.0,573.0,573.0,527.0,527.0,471.0,471.0,11.0,84.0,102.0,501.0,465.0,471.0
0,509.0,491.0,471.0,506.06666666666666,491.4,513.3777777777777,509.0,491.0,573.0,501.0,509.0,509.0,509.0,505.0,505.0,505.0,505.0,502.0,502.0,502.0,505.0,505.0,505.0,504.0,504.0,509.0,509.0,509.0,509.0,467.0,465.0,465.0,465.0,471.0,471.0,471.0,471.0,470.0,470.0,470.0,476.0,476.0,476.0,483.0,483.0,491.0,491.0,491.0,491.0,500.0,479.0,479.0,479.0,484.0,484.0,484.0,484.0,548.0,548.0,548.0,573.0,573.0,573.0,527.0,527.0,471.0,471.0,471.0,471.0,11.0,77.0,102.0,501.0,465.0,471.0
0,515.0,508.0,479.0,506.3333333333333,488.2888888888889,508.4888888888889,515.0,508.0,573.0,505.0,505.0,505.0,505.0,502.0,502.0,502.0,505.0,505.0,505.0,504.0,504.0,509.0,509.0,509.0,509.0,509.0,509.0,515.0,515.0,471.0,471.0,471.0,471.0,470.0,470.0,470.0,476.0,476.0,476.0,483.0,483.0,491.0,491.0,491.0,491.0,496.0,496.0,508.0,508.0,484.0,484.0,484.0,484.0,548.0,548.0,548.0,573.0,573.0,573.0,527.0,527.0,471.0,471.0,471.0,471.0,456.0,456.0,479.0,479.0,14.0,67.0,117.0,502.0,470.0,456.0
0,515.0,521.0,538.0,506.8222222222222,487.5111111111111,508.9555555555556,515.0,521.0,573.0,505.0,502.0,502.0,502.0,505.0,505.0,505.0,504.0,504.0,509.0,509.0,509.0,509.0,509.0,509.0,515.0,515.0,515.0,515.0,515.0,471.0,470.0,470.0,470.0,476.0,476.0,476.0,483.0,483.0,491.0,491.0,491.0,491.0,496.0,496.0,508.0,508.0,508.0,521.0,521.0,484.0,548.0,548.0,548.0,573.0,573.0,573.0,527.0,527.0,471.0,471.0,471.0,471.0,456.0,456.0,479.0,479.0,479.0,538.0,538.0,14.0,56.0,117.0,502.0,470.0,456.0
0,518.0,529.0,530.0,507.26666666666665,488.31111111111113,512.0666666666667,518.0,529.0,573.0,502.0,505.0,505.0,505.0,504.0,504.0,509.0,509.0,509.0,509.0,509.0,509.0,515.0,515.0,515.0,515.0,515.0,515.0,518.0,518.0,470.0,476.0,476.0,476.0,483.0,483.0,491.0,491.0,491.0,491.0,496.0,496.0,508.0,508.0,508.0,521.0,521.0,521.0,529.0,529.0,548.0,573.0,573.0,573.0,527.0,527.0,471.0,471.0,471.0,471.0,456.0,456.0,479.0,479.0,479.0,538.0,538.0,538.0,530.0,530.0,17.0,64.0,117.0,502.0,470.0,456.0
0,515.0,539.0,487.0,507.77777777777777,490.15555555555557,512.3333333333334,518.0,539.0,573.0,505.0,504.0,504.0,509.0,509.0,509.0,509.0,509.0,509.0,515.0,515.0,515.0,515.0,515.0,515.0,518.0,518.0,518.0,515.0,515.0,476.0,483.0,483.0,491.0,491.0,491.0,491.0,496.0,496.0,508.0,508.0,508.0,521.0,521.0,521.0,529.0,529.0,529.0,539.0,539.0,573.0,527.0,527.0,471.0,471.0,471.0,471.0,456.0,456.0,479.0,479.0,479.0,538.0,538.0,538.0,530.0,530.0,530.0,487.0,487.0,17.0,74.0,117.0,504.0,476.0,456.0
0,514.0,546.0,466.0,508.6666666666667,492.93333333333334,508.93333333333334,518.0,546.0,538.0,509.0,509.0,509.0,509.0,509.0,509.0,515.0,515.0,515.0,515.0,515.0,515.0,518.0,518.0,518.0,515.0,515.0,515.0,514.0,514.0,491.0,491.0,491.0,491.0,496.0,496.0,508.0,508.0,508.0,521.0,521.0,521.0,529.0,529.0,529.0,539.0,539.0,539.0,546.0,546.0,471.0,471.0,471.0,471.0,456.0,456.0,479.0,479.0,479.0,538.0,538.0,538.0,530.0,530.0,530.0,487.0,487.0,487.0,466.0,466.0,17.0,81.0,117.0,509.0,491.0,456.0
0,511.0,552.0,506.0,509.2,497.06666666666666,504.64444444444445,518.0,552.0,538.0,509.0,509.0,509.0,515.0,515.0,515.0,515.0,515.0,515.0,518.0,518.0,518.0,515.0,515.0,515.0,514.0,514.0,514.0,511.0,511.0,491.0,496.0,496.0,508.0,508.0,508.0,521.0,521.0,521.0,529.0,529.0,529.0,539.0,539.0,539.0,546.0,546.0,546.0,552.0,552.0,471.0,456.0,456.0,479.0,479.0,479.0,538.0,538.0,538.0,530.0,530.0,530.0,487.0,487.0,487.0,466.0,466.0,466.0,506.0,506.0,17.0,87.0,117.0,509.0,491.0,456.0
0,519.0,549.0,560.0,509.73333333333335,503.9555555555556,503.9111111111111,519.0,552.0,560.0,515.0,515.0,515.0,515.0,515.0,518.0,518.0,518.0,515.0,515.0,515.0,514.0,514.0,514.0,511.0,511.0,511.0,511.0,511.0,519.0,508.0,508.0,521.0,521.0,521.0,529.0,529.0,529.0,539.0,539.0,539.0,546.0,546.0,546.0,552.0,552.0,552.0,552.0,552.0,549.0,479.0,479.0,538.0,538.0,538.0,530.0,530.0,530.0,487.0,487.0,487.0,466.0,466.0,466.0,506.0,506.0,506.0,506.0,506.0,560.0,18.0,87.0,117.0,511.0,508.0,466.0
0,501.0,545.0,541.0,510.1333333333333,509.24444444444447,507.06666666666666,519.0,552.0,560.0,515.0,515.0,518.0,518.0,518.0,515.0,515.0,515.0,514.0,514.0,514.0,511.0,511.0,511.0,511.0,511.0,519.0,519.0,501.0,501.0,521.0,521.0,529.0,529.0,529.0,539.0,539.0,539.0,546.0,546.0,546.0,552.0,552.0,552.0,552.0,552.0,549.0,549.0,545.0,545.0,538.0,538.0,530.0,530.0,530.0,487.0,487.0,487.0,466.0,466.0,466.0,506.0,506.0,506.0,506.0,506.0,560.0,560.0,541.0,541.0,18.0,87.0,117.0,501.0,521.0,466.0
0,510.0,536.0,494.0,510.0,514.1777777777778,509.1111111111111,519.0,552.0,560.0,518.0,518.0,515.0,515.0,515.0,514.0,514.0,514.0,511.0,511.0,511.0,511.0,511.0,519.0,519.0,501.0,501.0,501.0,510.0,510.0,529.0,529.0,539.0,539.0,539.0,546.0,546.0,546.0,552.0,552.0,552.0,552.0,552.0,549.0,549.0,545.0,545.0,545.0,536.0,536.0,530.0,530.0,487.0,487.0,487.0,466.0,466.0,466.0,506.0,506.0,506.0,506.0,506.0,560.0,560.0,541.0,541.0,541.0,494.0,494.0,18.0,82.0,117.0,501.0,529.0,466.0
0,509.0,527.0,438.0,510.1777777777778,516.6666666666666,507.06666666666666,519.0,552.0,560.0,515.0,515.0,515.0,514.0,514.0,514.0,511.0,511.0,511.0,511.0,511.0,519.0,519.0,501.0,501.0,501.0,510.0,510.0,509.0,509.0,539.0,539.0,539.0,546.0,546.0,546.0,552.0,552.0,552.0,552.0,552.0,549.0,549.0,545.0,545.0,545.0,536.0,536.0,527.0,527.0,487.0,487.0,487.0,466.0,466.0,466.0,506.0,506.0,506.0,506.0,506.0,560.0,560.0,541.0,541.0,541.0,494.0,494.0,438.0,438.0,18.0,82.0,135.0,501.0,527.0,438.0
0,503.0,518.0,473.0,510.4,521.2888888888889,501.68888888888887,519.0,552.0,560.0,514.0,514.0,511.0,511.0,511.0,511.0,511.0,519.0,519.0,501.0,501.0,501.0,510.0,510.0,509.0,509.0,509.0,509.0,503.0,503.0,546.0,546.0,552.0,552.0,552.0,552.0,552.0,549.0,549.0,545.0,545.0,545.0,536.0,536.0,527.0,527.0,527.0,527.0,518.0,518.0,466.0,466.0,506.0,506.0,506.0,506.0,506.0,560.0,560.0,541.0,541.0,541.0,494.0,494.0,438.0,438.0,438.0,438.0,473.0,473.0,18.0,82.0,135.0,501.0,518.0,438.0
0,507.0,506.0,569.0,510.46666666666664,523.0222222222222,499.93333333333334,519.0,552.0,569.0,511.0,511.0,511.0,511.0,511.0,519.0,519.0,501.0,501.0,501.0,510.0,510.0,509.0,509.0,509.0,509.0,503.0,503.0,503.0,507.0,552.0,552.0,552.0,552.0,552.0,549.0,549.0,545.0,545.0,545.0,536.0,536.0,527.0,527.0,527.0,527.0,518.0,518.0,518.0,506.0,506.0,506.0,506.0,506.0,506.0,560.0,560.0,541.0,541.0,541.0,494.0,494.0,438.0,438.0,438.0,438.0,473.0,473.0,473.0,569.0,18.0,76.0,135.0,501.0,506.0,438.0
0,510.0,493.0,592.0,510.8222222222222,524.8,502.64444444444445,519.0,552.0,592.0,511.0,519.0,519.0,501.0,501.0,501.0,510.0,510.0,509.0,509.0,509.0,509.0,503.0,503.0,503.0,507.0,507.0,507.0,510.0,510.0,552.0,549.0,549.0,545.0,545.0,545.0,536.0,536.0,527.0,527.0,527.0,527.0,518.0,518.0,518.0,506.0,506.0,506.0,493.0,493.0,506.0,560.0,560.0,541.0,541.0,541.0,494.0,494.0,438.0,438.0,438.0,438.0,473.0,473.0,473.0,569.0,569.0,569.0,592.0,592.0,18.0,61.0,154.0,501.0,493.0,438.0
0,514.0,481.0,534.0,511.06666666666666,524.4,508.1333333333333,514.0,545.0,592.0,501.0,501.0,501.0,510.0,510.0,509.0,509.0,509.0,509.0,503.0,503.0,503.0,507.0,507.0,507.0,510.0,510.0,510.0,514.0,514.0,545.0,545.0,545.0,536.0,536.0,527.0,527.0,527.0,527.0,518.0,518.0,518.0,506.0,506.0,506.0,493.0,493.0,493.0,481.0,481.0,541.0,541.0,541.0,494.0,494.0,438.0,438.0,438.0,438.0,473.0,473.0,473.0,569.0,569.0,569.0,592.0,592.0,592.0,534.0,534.0,18.0,71.0,154.0,501.0,481.0,438.0
0,504.0,474.0,455.0,510.9555555555556,523.2,509.4888888888889,514.0,536.0,592.0,510.0,510.0,509.0,509.0,509.0,509.0,503.0,503.0,503.0,507.0,507.0,507.0,510.0,510.0,510.0,514.0,514.0,514.0,504.0,504.0,536.0,536.0,527.0,527.0,527.0,527.0,518.0,518.0,518.0,506.0,506.0,506.0,493.0,493.0,493.0,481.0,481.0,481.0,474.0,474.0,494.0,494.0,438.0,438.0,438.0,438.0,473.0,473.0,473.0,569.0,569.0,569.0,592.0,592.0,592.0,534.0,534.0,534.0,455.0,455.0,18.0,78.0,154.0,503.0,474.0,438.0
0,504.0,472.0,442.0,510.22222222222223,520.8444444444444,507.31111111111113,514.0,527.0,592.0,509.0,509.0,509.0,503.0,503.0,503.0,507.0,507.0,507.0,510.0,510.0,510.0,514.0,514.0,514.0,504.0,504.0,504.0,504.0,504.0,527.0,527.0,527.0,518.0,518.0,518.0,506.0,506.0,506.0,493.0,493.0,493.0,481.0,481.0,481.0,474.0,474.0,474.0,472.0,472.0,438.0,438.0,438.0,473.0,473.0,473.0,569.0,569.0,569.0,592.0,592.0,592.0,534.0,534.0,534.0,455.0,455.0,455.0,442.0,442.0,18.0,80.0,154.0,503.0,472.0,438.0
0,518.0,466.0,483.0,509.8,516.0444444444445,500.77777777777777,518.0,518.0,592.0,503.0,503.0,507.0,507.0,507.0,510.0,510.0,510.0,514.0,514.0,514.0,504.0,504.0,504.0,504.0,504.0,504.0,504.0,518.0,518.0,518.0,518.0,506.0,506.0,506.0,493.0,493.0,493.0,481.0,481.0,481.0,474.0,474.0,474.0,472.0,472.0,472.0,472.0,466.0,466.0,473.0,473.0,569.0,569.0,569.0,592.0,592.0,592.0,534.0,534.0,534.0,455.0,455.0,455.0,442.0,442.0,442.0,442.0,483.0,483.0,18.0,86.0,154.0,503.0,466.0,442.0
0,506.0,474.0,516.0,509.3333333333333,511.97777777777776,500.06666666666666,518.0,506.0,592.0,507.0,507.0,510.0,510.0,510.0,514.0,514.0,514.0,504.0,504.0,504.0,504.0,504.0,504.0,504.0,518.0,518.0,518.0,506.0,506.0,506.0,506.0,493.0,493.0,493.0,481.0,481.0,481.0,474.0,474.0,474.0,472.0,472.0,472.0,472.0,466.0,466.0,466.0,474.0,474.0,569.0,569.0,592.0,592.0,592.0,534.0,534.0,534.0,455.0,455.0,455.0,442.0,442.0,442.0,442.0,483.0,483.0,483.0,516.0,516.0,18.0,86.0,154.0,504.0,466.0,442.0
0,504.0,474.0,503.0,508.6666666666667,507.4888888888889,501.8888888888889,518.0,493.0,592.0,510.0,510.0,514.0,514.0,514.0,504.0,504.0,504.0,504.0,504.0,504.0,504.0,518.0,518.0,518.0,506.0,506.0,506.0,504.0,504.0,493.0,493.0,481.0,481.0,481.0,474.0,474.0,474.0,472.0,472.0,472.0,472.0,466.0,466.0,466.0,474.0,474.0,474.0,474.0,474.0,592.0,592.0,534.0,534.0,534.0,455.0,455.0,455.0,442.0,442.0,442.0,442.0,483.0,483.0,483.0,516.0,516.0,516.0,503.0,503.0,18.0,86.0,154.0,504.0,466.0,442.0
0,511.0,478.0,490.0,508.3777777777778,502.73333333333335,502.8888888888889,518.0,481.0,534.0,514.0,514.0,504.0,504.0,504.0,504.0,504.0,504.0,504.0,518.0,518.0,518.0,506.0,506.0,506.0,504.0,504.0,504.0,511.0,511.0,481.0,481.0,474.0,474.0,474.0,472.0,472.0,472.0,472.0,466.0,466.0,466.0,474.0,474.0,474.0,474.0,474.0,474.0,478.0,478.0,534.0,534.0,455.0,455.0,455.0,442.0,442.0,442.0,442.0,483.0,483.0,483.0,516.0,516.0,516.0,503.0,503.0,503.0,490.0,490.0,18.0,86.0,154.0,504.0,466.0,442.0
0,498.0,485.0,454.0,507.8,498.1111111111111,500.22222222222223,518.0,485.0,516.0,504.0,504.0,504.0,504.0,504.0,504.0,518.0,518.0,518.0,506.0,506.0,506.0,504.0,504.0,504.0,511.0,511.0,511.0,498.0,498.0,474.0,474.0,472.0,472.0,472.0,472.0,466.0,466.0,466.0,474.0,474.0,474.0,474.0,474.0,474.0,478.0,478.0,478.0,485.0,485.0,455.0,455.0,442.0,442.0,442.0,442.0,483.0,483.0,483.0,516.0,516.0,516.0,503.0,503.0,503.0,490.0,490.0,490.0,454.0,454.0,21.0,86.0,154.0,498.0,466.0,442.0
