,unixtime,emg0,emg1,emg2,emg0_ampl,emg1_ampl,emg2_ampl,emg0_med,emg1_med
0,1555416153.8144412,504.0,506.0,760.0,9.0,23.0,461.0,505.65,506.9
1,1555416153.8806746,500.0,507.0,678.0,10.0,23.0,461.0,505.2,506.9
2,1555416153.9483557,503.0,514.0,599.0,9.0,23.0,461.0,504.85,507.25
3,1555416154.0114193,506.0,517.0,548.0,9.0,22.0,461.0,504.75,507.2
4,1555416154.0807788,516.0,518.0,473.0,16.0,23.0,461.0,505.4,507.55
5,1555416154.1463673,520.0,523.0,326.0,20.0,28.0,461.0,506.2,508.2
6,1555416154.2214167,518.0,516.0,391.0,20.0,28.0,461.0,506.75,508.85
7,1555416154.287605,517.0,527.0,487.0,20.0,32.0,461.0,507.25,510.0
8,1555416154.366447,512.0,524.0,468.0,20.0,32.0,461.0,507.4,511.0
9,1555416154.4414854,511.0,519.0,453.0,20.0,32.0,461.0,507.5,511.6
10,1555416154.5046027,510.0,518.0,454.0,20.0,32.0,461.0,507.75,512.0
11,1555416154.5678174,507.0,514.0,384.0,20.0,32.0,461.0,507.65,511.9
12,1555416154.631982,506.0,523.0,380.0,20.0,32.0,461.0,507.75,512.35
13,1555416154.697534,505.0,529.0,454.0,20.0,34.0,461.0,507.9,513.2
14,1555416154.7711174,504.0,528.0,418.0,20.0,34.0,446.0,507.95,514.35
15,1555416154.8374407,508.0,528.0,528.0,20.0,34.0,434.0,508.3,515.65
16,1555416154.9045744,513.0,519.0,533.0,20.0,34.0,434.0,508.8,516.55
17,1555416154.9752357,513.0,518.0,474.0,20.0,26.0,434.0,509.15,517.7
18,1555416155.0409756,511.0,512.0,524.0,20.0,26.0,434.0,509.4,518.15
19,1555416155.1121616,512.0,515.0,471.0,20.0,23.0,434.0,509.8,518.75
20,1555416155.1827247,511.0,520.0,488.0,20.0,22.0,352.0,510.15,519.45
21,1555416155.2537322,513.0,526.0,522.0,17.0,17.0,273.0,510.8,520.4
22,1555416155.331037,512.0,529.0,464.0,16.0,17.0,222.0,511.25,521.15
23,1555416155.4053724,511.0,530.0,432.0,16.0,18.0,207.0,511.5,521.8
24,1555416155.4779522,507.0,513.0,327.0,16.0,18.0,207.0,511.05,521.55
25,1555416155.5531445,508.0,503.0,233.0,14.0,27.0,300.0,510.45,520.55
26,1555416155.6240292,506.0,499.0,377.0,13.0,31.0,300.0,509.85,519.7
27,1555416155.6964288,510.0,494.0,432.0,9.0,36.0,300.0,509.5,518.05
28,1555416155.7685452,507.0,486.0,703.0,9.0,44.0,470.0,509.25,516.15
29,1555416155.8466687,508.0,485.0,756.0,9.0,45.0,523.0,509.1,514.45
30,1555416155.9180045,508.0,487.0,692.0,9.0,45.0,523.0,509.0,512.9
31,1555416155.9914176,508.0,491.0,579.0,9.0,45.0,523.0,509.05,511.75
32,1555416156.063852,506.0,500.0,592.0,9.0,45.0,523.0,509.05,510.6
33,1555416156.1316235,506.0,501.0,566.0,9.0,45.0,523.0,509.1,509.2
34,1555416156.2216778,506.0,497.0,552.0,7.0,45.0,523.0,509.2,507.65
35,1555416156.2996416,504.0,495.0,528.0,9.0,45.0,523.0,509.0,506.0
36,1555416156.373464,501.0,501.0,526.0,12.0,45.0,523.0,508.4,505.1
37,1555416156.4504275,501.0,517.0,404.0,12.0,45.0,523.0,507.8,505.05
38,1555416156.5295322,505.0,512.0,384.0,12.0,45.0,523.0,507.5,505.05
39,1555416156.6003032,506.0,511.0,381.0,12.0,45.0,523.0,507.2,504.85
40,1555416156.673326,510.0,518.0,396.0,12.0,45.0,523.0,507.15,504.75
41,1555416156.7477417,512.0,525.0,411.0,11.0,45.0,523.0,507.1,504.7
42,1555416156.824451,513.0,528.0,385.0,12.0,45.0,523.0,507.15,504.65
43,1555416156.9046514,513.0,526.0,354.0,12.0,43.0,523.0,507.25,504.45
44,1555416156.9717102,512.0,513.0,383.0,12.0,43.0,523.0,507.5,504.45
45,1555416157.0480113,513.0,519.0,444.0,12.0,43.0,402.0,507.75,505.25
46,1555416157.1258123,515.0,515.0,553.0,14.0,43.0,402.0,508.2,506.05
47,1555416157.1980934,515.0,516.0,633.0,14.0,43.0,402.0,508.45,507.15
48,1555416157.269525,516.0,515.0,713.0,15.0,43.0,402.0,508.9,508.6
49,1555416157.357851,514.0,515.0,644.0,15.0,41.0,359.0,509.2,510.1
50,1555416157.436768,509.0,511.0,649.0,15.0,37.0,359.0,509.25,511.3
51,1555416157.5354285,507.0,508.0,649.0,15.0,33.0,359.0,509.2,512.15
52,1555416157.60473,508.0,508.0,590.0,15.0,33.0,359.0,509.3,512.55
53,1555416157.6748605,510.0,507.0,553.0,15.0,33.0,359.0,509.5,512.85
54,1555416157.7515032,512.0,506.0,494.0,15.0,33.0,359.0,509.8,513.3
55,1555416157.8266838,510.0,494.0,490.0,15.0,34.0,359.0,510.1,513.25
56,1555416157.8946679,506.0,497.0,420.0,15.0,34.0,359.0,510.35,513.05
57,1555416157.9731865,510.0,497.0,386.0,11.0,34.0,359.0,510.8,512.05
58,1555416158.0493333,510.0,503.0,349.0,10.0,34.0,364.0,511.05,511.6
59,1555416158.12794,509.0,502.0,393.0,10.0,34.0,364.0,511.2,511.15
60,1555416158.2066672,508.0,507.0,381.0,10.0,34.0,364.0,511.1,510.6
61,1555416158.2898767,506.0,509.0,453.0,10.0,34.0,364.0,510.8,509.8
62,1555416158.359536,507.0,512.0,497.0,10.0,32.0,364.0,510.5,509.0
63,1555416158.4456513,509.0,511.0,538.0,10.0,25.0,364.0,510.3,508.25
64,1555416158.5248246,509.0,514.0,572.0,10.0,25.0,364.0,510.15,508.3
65,1555416158.596266,508.0,506.0,581.0,10.0,22.0,364.0,509.9,507.65
66,1555416158.6683083,508.0,509.0,593.0,10.0,22.0,364.0,509.55,507.35
67,1555416158.7456155,508.0,510.0,586.0,10.0,21.0,364.0,509.2,507.05
68,1555416158.813809,508.0,512.0,568.0,8.0,21.0,300.0,508.8,506.9
69,1555416158.8855948,509.0,512.0,559.0,6.0,20.0,300.0,508.55,506.75
70,1555416158.9582982,508.0,515.0,528.0,6.0,21.0,300.0,508.5,506.95
71,1555416159.0329778,508.0,515.0,494.0,6.0,21.0,244.0,508.55,507.3
72,1555416159.1071985,508.0,511.0,389.0,6.0,21.0,244.0,508.55,507.45
73,1555416159.176372,510.0,507.0,346.0,6.0,21.0,247.0,508.55,507.45
74,1555416159.2458947,510.0,502.0,347.0,4.0,21.0,247.0,508.45,507.25
75,1555416159.3205707,511.0,500.0,378.0,5.0,18.0,247.0,508.5,507.55
76,1555416159.3975706,507.0,502.0,415.0,5.0,18.0,247.0,508.55,507.8
77,1555416159.4767816,508.0,504.0,491.0,5.0,15.0,247.0,508.45,508.15
78,1555416159.5540874,507.0,505.0,544.0,5.0,15.0,247.0,508.3,508.25
79,1555416159.6385894,508.0,514.0,548.0,5.0,15.0,247.0,508.25,508.85
80,1555416159.7086422,509.0,514.0,560.0,5.0,15.0,247.0,508.3,509.2
81,1555416159.7847807,509.0,515.0,571.0,4.0,15.0,247.0,508.45,509.5
82,1555416159.8761017,510.0,511.0,594.0,4.0,15.0,248.0,508.6,509.45
83,1555416159.9545133,511.0,514.0,575.0,4.0,15.0,248.0,508.7,509.6
84,1555416160.066389,513.0,509.0,511.0,6.0,15.0,248.0,508.9,509.35
85,1555416160.1558244,512.0,514.0,488.0,6.0,15.0,248.0,509.1,509.75
86,1555416160.2265546,511.0,516.0,485.0,6.0,16.0,248.0,509.25,510.1
87,1555416160.3091764,511.0,516.0,487.0,6.0,16.0,248.0,509.4,510.4
88,1555416160.3843093,508.0,514.0,464.0,6.0,16.0,248.0,509.4,510.5
89,1555416160.4644403,507.0,515.0,421.0,6.0,16.0,248.0,509.3,510.65
90,1555416160.544958,505.0,516.0,415.0,8.0,16.0,248.0,509.15,510.7
91,1555416160.6382866,507.0,512.0,446.0,8.0,16.0,248.0,509.1,510.55
92,1555416160.7193007,508.0,502.0,549.0,8.0,16.0,248.0,509.1,510.1
93,1555416160.7989104,506.0,501.0,563.0,8.0,16.0,247.0,508.9,509.8
94,1555416160.8686612,506.0,501.0,562.0,8.0,16.0,216.0,508.7,509.75
95,1555416160.9378712,507.0,496.0,559.0,8.0,20.0,179.0,508.5,509.55
96,1555416161.0111349,509.0,500.0,564.0,8.0,20.0,179.0,508.6,509.45
97,1555416161.0847838,510.0,505.0,573.0,8.0,20.0,179.0,508.7,509.5
98,1555416161.1715977,509.0,510.0,548.0,8.0,20.0,179.0,508.8,509.75
99,1555416161.2546003,507.0,510.0,487.0,8.0,20.0,179.0,508.75,509.55
100,1555416161.3494964,507.0,515.0,460.0,8.0,20.0,179.0,508.65,509.6
101,1555416161.4281716,508.0,512.0,452.0,8.0,20.0,179.0,508.6,509.45
102,1555416161.510973,510.0,519.0,458.0,8.0,23.0,160.0,508.6,509.85
103,1555416161.5954518,511.0,510.0,475.0,8.0,23.0,158.0,508.6,509.65
104,1555416161.6779141,509.0,511.0,487.0,7.0,23.0,158.0,508.4,509.75
105,1555416161.7544677,507.0,512.0,488.0,6.0,23.0,158.0,508.15,509.65
106,1555416161.8296878,509.0,509.0,498.0,6.0,23.0,158.0,508.05,509.3
107,1555416161.9075196,508.0,512.0,505.0,6.0,23.0,158.0,507.9,509.1
108,1555416161.9909549,508.0,511.0,554.0,6.0,23.0,158.0,507.9,508.95
109,1555416162.063604,508.0,508.0,552.0,6.0,23.0,158.0,507.95,508.6
110,1555416162.1374576,507.0,505.0,540.0,5.0,23.0,127.0,508.05,508.05
111,1555416162.2157836,508.0,501.0,549.0,5.0,23.0,121.0,508.1,507.5
112,1555416162.2963152,511.0,496.0,556.0,5.0,23.0,121.0,508.25,507.2
113,1555416162.3745365,510.0,498.0,523.0,5.0,23.0,121.0,508.45,507.05
114,1555416162.4539528,509.0,504.0,489.0,4.0,23.0,121.0,508.6,507.2
115,1555416162.5449657,509.0,508.0,451.0,4.0,23.0,122.0,508.7,507.8
116,1555416162.6269763,506.0,507.0,444.0,5.0,23.0,129.0,508.55,508.15
117,1555416162.7005866,507.0,505.0,472.0,5.0,23.0,112.0,508.4,508.15
118,1555416162.7801735,506.0,511.0,480.0,5.0,23.0,112.0,508.25,508.2
119,1555416162.8587148,508.0,512.0,485.0,5.0,23.0,112.0,508.3,508.3
120,1555416162.9370236,505.0,509.0,483.0,6.0,23.0,112.0,508.2,508.0
121,1555416163.0185976,509.0,510.0,460.0,6.0,23.0,112.0,508.25,507.9
122,1555416163.101282,510.0,505.0,457.0,6.0,16.0,112.0,508.25,507.2
123,1555416163.1796942,510.0,506.0,488.0,6.0,16.0,112.0,508.2,507.0
124,1555416163.2565768,509.0,506.0,545.0,6.0,16.0,112.0,508.2,506.75
125,1555416163.3359847,508.0,507.0,595.0,6.0,16.0,151.0,508.25,506.5
126,1555416163.4183397,510.0,510.0,565.0,6.0,16.0,151.0,508.3,506.55
127,1555416163.4919078,509.0,511.0,536.0,6.0,16.0,151.0,508.35,506.5
128,1555416163.5646598,509.0,510.0,526.0,6.0,16.0,151.0,508.4,506.45
129,1555416163.6532245,508.0,509.0,518.0,6.0,16.0,151.0,508.4,506.5
130,1555416163.7391267,508.0,498.0,483.0,6.0,16.0,151.0,508.45,506.15
131,1555416163.828687,510.0,495.0,476.0,6.0,17.0,151.0,508.55,505.85
132,1555416163.8988767,508.0,500.0,446.0,5.0,17.0,151.0,508.4,506.05
133,1555416163.9732277,508.0,495.0,471.0,5.0,17.0,151.0,508.3,505.9
134,1555416164.0491066,508.0,501.0,483.0,5.0,17.0,151.0,508.25,505.75
135,1555416164.1178339,507.0,503.0,494.0,5.0,17.0,151.0,508.15,505.5
136,1555416164.1975658,507.0,507.0,497.0,5.0,17.0,149.0,508.2,505.5
137,1555416164.2772925,508.0,504.0,484.0,5.0,17.0,149.0,508.25,505.45
138,1555416164.351274,507.0,513.0,505.0,5.0,18.0,149.0,508.3,505.55
139,1555416164.4252236,508.0,513.0,535.0,5.0,18.0,149.0,508.3,505.6
140,1555416164.4980671,510.0,514.0,552.0,3.0,19.0,149.0,508.55,505.85
141,1555416164.569008,512.0,504.0,569.0,5.0,19.0,149.0,508.7,505.55
142,1555416164.6415946,512.0,512.0,553.0,5.0,19.0,149.0,508.8,505.9
143,1555416164.711931,510.0,507.0,539.0,5.0,19.0,149.0,508.8,505.95
144,1555416164.7917225,507.0,507.0,501.0,5.0,19.0,149.0,508.7,506.0
145,1555416164.8796177,508.0,508.0,483.0,5.0,19.0,123.0,508.7,506.05
146,1555416164.9739156,506.0,505.0,466.0,6.0,19.0,123.0,508.5,505.8
147,1555416165.0509496,504.0,499.0,464.0,8.0,19.0,123.0,508.25,505.2
148,1555416165.1360598,507.0,499.0,463.0,8.0,19.0,123.0,508.15,504.65
149,1555416165.212459,510.0,497.0,487.0,8.0,19.0,123.0,508.25,504.05
150,1555416165.3013725,510.0,493.0,520.0,8.0,21.0,123.0,508.35,503.8
151,1555416165.3788836,510.0,497.0,535.0,8.0,21.0,123.0,508.35,503.9
152,1555416165.4587343,509.0,503.0,569.0,8.0,21.0,106.0,508.4,504.05
153,1555416165.5389352,510.0,506.0,553.0,8.0,21.0,106.0,508.5,504.6
154,1555416165.6238408,508.0,508.0,544.0,8.0,21.0,106.0,508.5,504.95
155,1555416165.708535,504.0,507.0,501.0,8.0,21.0,106.0,508.35,505.15
156,1555416165.8091667,506.0,509.0,490.0,8.0,21.0,106.0,508.3,505.25
157,1555416165.8932476,507.0,506.0,466.0,8.0,21.0,106.0,508.25,505.35
158,1555416165.9714377,510.0,500.0,463.0,8.0,21.0,106.0,508.4,504.7
159,1555416166.0490873,510.0,506.0,469.0,8.0,21.0,106.0,508.5,504.35
160,1555416166.1220965,510.0,509.0,482.0,8.0,19.0,106.0,508.5,504.1
161,1555416166.2068655,507.0,513.0,527.0,8.0,20.0,106.0,508.25,504.55
162,1555416166.285456,507.0,511.0,548.0,6.0,20.0,106.0,508.0,504.5
163,1555416166.3690395,506.0,511.0,554.0,6.0,20.0,106.0,507.8,504.7
164,1555416166.4506142,506.0,506.0,551.0,6.0,20.0,106.0,507.75,504.65
165,1555416166.5276465,509.0,506.0,521.0,6.0,20.0,106.0,507.8,504.55
166,1555416166.5991523,509.0,505.0,518.0,6.0,20.0,106.0,507.95,504.55
167,1555416166.687486,509.0,500.0,521.0,6.0,20.0,106.0,508.2,504.6
168,1555416166.769426,509.0,503.0,505.0,6.0,20.0,106.0,508.3,504.8
169,1555416166.8579566,507.0,506.0,486.0,6.0,20.0,106.0,508.15,505.25
170,1555416166.9363446,506.0,509.0,492.0,6.0,16.0,106.0,507.95,506.05
171,1555416167.0163987,507.0,511.0,513.0,6.0,13.0,106.0,507.8,506.75
172,1555416167.0971751,508.0,515.0,515.0,6.0,15.0,91.0,507.75,507.35
173,1555416167.1889484,507.0,512.0,536.0,6.0,15.0,91.0,507.6,507.65
174,1555416167.2800245,506.0,512.0,517.0,6.0,15.0,91.0,507.5,507.85
175,1555416167.3603737,509.0,510.0,483.0,4.0,15.0,91.0,507.75,508.0
176,1555416167.4310136,513.0,511.0,485.0,7.0,15.0,91.0,508.1,508.1
177,1555416167.5094597,515.0,516.0,500.0,9.0,16.0,91.0,508.5,508.6
178,1555416167.5855882,513.0,521.0,501.0,9.0,21.0,85.0,508.65,509.65
179,1555416167.6649413,507.0,516.0,523.0,9.0,21.0,72.0,508.5,510.15
180,1555416167.7456858,504.0,512.0,530.0,11.0,21.0,71.0,508.2,510.3
181,1555416167.8238049,505.0,509.0,501.0,11.0,21.0,71.0,508.1,510.1
182,1555416167.904621,509.0,508.0,502.0,11.0,21.0,71.0,508.2,509.95
183,1555416167.983623,512.0,511.0,490.0,11.0,21.0,68.0,508.5,509.95
184,1555416168.0776823,506.0,504.0,492.0,11.0,21.0,53.0,508.5,509.85
185,1555416168.1492896,507.0,499.0,519.0,11.0,22.0,53.0,508.4,509.5
186,1555416168.2179203,508.0,499.0,517.0,11.0,22.0,53.0,508.35,509.2
187,1555416168.287782,509.0,503.0,547.0,11.0,22.0,64.0,508.35,509.35
188,1555416168.3628569,509.0,502.0,565.0,11.0,22.0,82.0,508.35,509.3
189,1555416168.4407113,508.0,508.0,545.0,11.0,22.0,82.0,508.4,509.4
190,1555416168.529796,507.0,510.0,510.0,11.0,22.0,82.0,508.45,509.45
191,1555416168.601692,509.0,511.0,479.0,11.0,22.0,86.0,508.55,509.45
192,1555416168.673948,509.0,514.0,448.0,11.0,22.0,117.0,508.6,509.4
193,1555416168.7571573,509.0,512.0,478.0,11.0,22.0,117.0,508.7,509.4
194,1555416168.8312001,509.0,511.0,504.0,11.0,22.0,117.0,508.85,509.35
195,1555416168.918701,508.0,509.0,525.0,11.0,22.0,117.0,508.8,509.3
196,1555416168.999623,509.0,508.0,521.0,11.0,22.0,117.0,508.6,509.15
197,1555416169.081699,511.0,510.0,500.0,9.0,22.0,117.0,508.4,508.85
198,1555416169.1518645,512.0,514.0,491.0,8.0,17.0,117.0,508.35,508.5
199,1555416169.2318041,510.0,516.0,510.0,8.0,17.0,117.0,508.5,508.5
200,1555416169.3040435,509.0,515.0,523.0,7.0,17.0,117.0,508.75,508.65
201,1555416169.3837302,507.0,512.0,550.0,6.0,17.0,117.0,508.85,508.8
202,1555416169.4648569,509.0,505.0,541.0,6.0,17.0,117.0,508.85,508.65
203,1555416169.5396407,510.0,501.0,545.0,6.0,17.0,117.0,508.75,508.15
204,1555416169.608057,512.0,504.0,533.0,5.0,17.0,117.0,509.05,508.15
205,1555416169.6788213,510.0,504.0,506.0,5.0,17.0,117.0,509.2,508.4
206,1555416169.7633178,508.0,503.0,490.0,5.0,15.0,117.0,509.2,508.6
207,1555416169.8382947,509.0,508.0,423.0,5.0,15.0,142.0,509.2,508.85
208,1555416169.907631,509.0,511.0,420.0,5.0,15.0,130.0,509.2,509.3
209,1555416169.9777465,509.0,513.0,455.0,5.0,15.0,130.0,509.25,509.55
210,1555416170.0515254,508.0,514.0,498.0,5.0,15.0,130.0,509.3,509.75
211,1555416170.1348658,508.0,514.0,522.0,5.0,15.0,130.0,509.25,509.9
212,1555416170.221705,511.0,510.0,516.0,5.0,15.0,130.0,509.35,509.7
213,1555416170.2924745,511.0,512.0,512.0,5.0,15.0,130.0,509.45,509.7
214,1555416170.3713572,511.0,511.0,529.0,5.0,15.0,130.0,509.55,509.7
215,1555416170.4494011,509.0,515.0,567.0,5.0,15.0,147.0,509.6,510.0
216,1555416170.5240066,510.0,516.0,587.0,5.0,15.0,167.0,509.65,510.4
217,1555416170.6021254,510.0,518.0,563.0,5.0,17.0,167.0,509.6,510.8
218,1555416170.6817796,509.0,517.0,530.0,5.0,17.0,167.0,509.45,510.95
219,1555416170.767379,509.0,515.0,508.0,5.0,17.0,167.0,509.4,510.9
220,1555416170.848701,508.0,513.0,453.0,5.0,17.0,167.0,509.35,510.8
221,1555416170.9465835,509.0,506.0,442.0,4.0,17.0,167.0,509.45,510.5
222,1555416171.0343072,509.0,502.0,425.0,4.0,17.0,167.0,509.45,510.35
223,1555416171.1245606,508.0,502.0,495.0,4.0,16.0,167.0,509.35,510.4
224,1555416171.2038321,506.0,505.0,514.0,5.0,16.0,167.0,509.05,510.45
225,1555416171.2834892,506.0,508.0,535.0,5.0,16.0,167.0,508.85,510.65
226,1555416171.3523183,508.0,509.0,523.0,5.0,16.0,167.0,508.85,510.95
227,1555416171.4419303,509.0,511.0,509.0,5.0,16.0,167.0,508.85,511.1
228,1555416171.523607,509.0,512.0,534.0,5.0,16.0,162.0,508.85,511.15
229,1555416171.595616,508.0,515.0,557.0,5.0,16.0,162.0,508.8,511.25
230,1555416171.6753693,508.0,510.0,551.0,5.0,16.0,162.0,508.8,511.05
231,1555416171.76036,511.0,507.0,544.0,5.0,16.0,162.0,508.95,510.7
232,1555416171.8530023,512.0,505.0,525.0,6.0,16.0,162.0,509.0,510.45
233,1555416171.9337425,512.0,505.0,525.0,6.0,16.0,162.0,509.05,510.1
234,1555416172.0132313,509.0,507.0,453.0,6.0,16.0,162.0,508.95,509.9
235,1555416172.089223,513.0,505.0,536.0,7.0,16.0,162.0,509.15,509.4
236,1555416172.1724539,511.0,510.0,558.0,7.0,16.0,138.0,509.2,509.1
237,1555416172.265689,510.0,511.0,558.0,7.0,15.0,133.0,509.2,508.75
238,1555416172.3495936,510.0,511.0,558.0,7.0,13.0,133.0,509.25,508.45
239,1555416172.4304426,509.0,512.0,431.0,7.0,13.0,133.0,509.25,508.3
240,1555416172.5086002,509.0,507.0,453.0,7.0,13.0,133.0,509.3,508.0
241,1555416172.6008506,511.0,508.0,497.0,7.0,13.0,133.0,509.4,508.1
242,1555416172.6781662,511.0,510.0,558.0,7.0,13.0,127.0,509.5,508.5
243,1555416172.7526398,511.0,508.0,553.0,7.0,10.0,127.0,509.65,508.8
244,1555416172.8349252,510.0,511.0,558.0,7.0,10.0,127.0,509.85,509.1
245,1555416172.9471066,508.0,514.0,431.0,5.0,10.0,127.0,509.95,509.4
246,1555416173.0265431,509.0,512.0,431.0,5.0,10.0,127.0,510.0,509.55
247,1555416173.1016169,511.0,508.0,497.0,5.0,10.0,127.0,510.1,509.4
248,1555416173.1753743,513.0,505.0,536.0,5.0,10.0,127.0,510.3,509.05
249,1555416173.2519994,511.0,510.0,558.0,5.0,9.0,127.0,510.45,508.8
250,1555416173.3297408,511.0,508.0,553.0,5.0,9.0,127.0,510.6,508.7
251,1555416173.4084952,510.0,511.0,558.0,5.0,9.0,127.0,510.55,508.9
252,1555416173.4942195,507.0,512.0,549.0,6.0,9.0,127.0,510.3,509.25
253,1555416173.5889716,508.0,515.0,546.0,6.0,10.0,127.0,510.1,509.75
254,1555416173.672478,508.0,514.0,512.0,6.0,10.0,127.0,510.05,510.1
255,1555416173.7486124,509.0,511.0,472.0,6.0,10.0,127.0,509.85,510.4
256,1555416173.8270583,511.0,506.0,427.0,6.0,10.0,131.0,509.85,510.2
257,1555416173.8969193,511.0,502.0,411.0,6.0,13.0,147.0,509.9,509.75
258,1555416173.9666028,510.0,502.0,406.0,6.0,13.0,152.0,509.9,509.3
259,1555416174.049635,511.0,500.0,420.0,6.0,15.0,152.0,510.0,508.7
260,1555416174.1298378,510.0,503.0,463.0,6.0,15.0,152.0,510.05,508.5
261,1555416174.1995387,510.0,504.0,511.0,6.0,15.0,152.0,510.0,508.3
262,1555416174.270376,510.0,506.0,568.0,6.0,15.0,162.0,509.95,508.1
263,1555416174.3448784,510.0,508.0,608.0,6.0,15.0,202.0,509.9,508.1
264,1555416174.4252026,509.0,510.0,640.0,6.0,15.0,234.0,509.85,508.05
265,1555416174.5062828,511.0,509.0,628.0,6.0,15.0,234.0,510.0,507.8
266,1555416174.5926461,509.0,504.0,593.0,6.0,15.0,234.0,510.0,507.4
267,1555416174.6743195,511.0,509.0,496.0,6.0,15.0,234.0,510.0,507.45
268,1555416174.761973,511.0,508.0,468.0,4.0,15.0,234.0,509.9,507.6
269,1555416174.8404102,509.0,510.0,452.0,4.0,15.0,234.0,509.8,507.6
270,1555416174.9209082,508.0,511.0,454.0,4.0,15.0,234.0,509.65,507.75
271,1555416174.997757,509.0,516.0,443.0,4.0,16.0,234.0,509.6,508.0
272,1555416175.0718956,509.0,516.0,438.0,3.0,16.0,234.0,509.7,508.2
273,1555416175.158535,509.0,515.0,454.0,3.0,16.0,234.0,509.75,508.2
274,1555416175.2363172,509.0,508.0,485.0,3.0,16.0,234.0,509.8,507.9
275,1555416175.331618,509.0,500.0,551.0,3.0,16.0,234.0,509.8,507.35
276,1555416175.406437,509.0,500.0,569.0,3.0,16.0,234.0,509.7,507.05
277,1555416175.4763384,509.0,503.0,568.0,3.0,16.0,234.0,509.6,507.1
278,1555416175.5486987,506.0,503.0,568.0,5.0,16.0,220.0,509.4,507.15
279,1555416175.6347215,506.0,509.0,556.0,5.0,16.0,202.0,509.15,507.6
280,1555416175.7183745,508.0,510.0,540.0,5.0,16.0,202.0,509.05,507.95
281,1555416175.8028846,505.0,506.0,516.0,6.0,16.0,202.0,508.8,508.05
282,1555416175.90393,508.0,514.0,465.0,6.0,16.0,202.0,508.7,508.45
283,1555416175.976521,506.0,510.0,441.0,6.0,16.0,202.0,508.5,508.55
284,1555416176.046764,505.0,508.0,438.0,6.0,16.0,190.0,508.3,508.45
285,1555416176.1194296,505.0,511.0,466.0,6.0,16.0,155.0,508.0,508.55
286,1555416176.1948862,505.0,512.0,523.0,6.0,16.0,131.0,507.8,508.95
287,1555416176.2898827,507.0,515.0,539.0,6.0,16.0,131.0,507.6,509.25
288,1555416176.3736942,508.0,514.0,535.0,4.0,16.0,131.0,507.45,509.55
289,1555416176.455758,511.0,515.0,537.0,6.0,16.0,131.0,507.55,509.8
290,1555416176.5376291,513.0,513.0,539.0,8.0,16.0,131.0,507.8,509.9
291,1555416176.612815,511.0,511.0,561.0,8.0,16.0,131.0,507.9,509.65
292,1555416176.694697,511.0,513.0,602.0,8.0,15.0,164.0,508.0,509.5
293,1555416176.775801,512.0,511.0,605.0,8.0,15.0,167.0,508.15,509.3
294,1555416176.8538482,512.0,506.0,559.0,8.0,15.0,167.0,508.3,509.2
295,1555416176.9369247,514.0,503.0,505.0,9.0,15.0,167.0,508.55,509.35
296,1555416177.01831,513.0,506.0,445.0,9.0,12.0,167.0,508.75,509.65
297,1555416177.0999706,511.0,509.0,419.0,9.0,12.0,186.0,508.85,509.95
298,1555416177.1755686,509.0,509.0,409.0,9.0,12.0,196.0,509.0,510.25
299,1555416177.2476802,509.0,505.0,383.0,9.0,12.0,222.0,509.15,510.05
300,1555416177.332509,507.0,509.0,459.0,9.0,12.0,222.0,509.1,510.0
301,1555416177.4151013,508.0,514.0,469.0,9.0,12.0,222.0,509.25,510.4
302,1555416177.5065005,505.0,507.0,507.0,9.0,12.0,222.0,509.1,510.05
303,1555416177.5933619,505.0,511.0,543.0,9.0,12.0,222.0,509.05,510.1
304,1555416177.674669,510.0,506.0,574.0,9.0,12.0,222.0,509.3,510.0
305,1555416177.749568,509.0,505.0,578.0,9.0,12.0,222.0,509.5,509.7
306,1555416177.8307807,507.0,512.0,545.0,9.0,12.0,222.0,509.6,509.7
307,1555416177.9178257,507.0,510.0,494.0,9.0,12.0,222.0,509.6,509.45
308,1555416177.9996724,506.0,510.0,488.0,9.0,12.0,222.0,509.5,509.25
309,1555416178.0744686,507.0,516.0,495.0,9.0,13.0,222.0,509.3,509.3
310,1555416178.14896,509.0,512.0,479.0,9.0,13.0,222.0,509.1,509.25
311,1555416178.2255552,510.0,512.0,487.0,9.0,13.0,222.0,509.05,509.3
312,1555416178.306835,508.0,507.0,459.0,9.0,13.0,222.0,508.9,509.0
313,1555416178.3813922,512.0,505.0,468.0,9.0,13.0,195.0,508.9,508.7
314,1555416178.4569092,510.0,500.0,475.0,9.0,16.0,195.0,508.8,508.4
315,1555416178.5398118,508.0,505.0,545.0,8.0,16.0,195.0,508.5,508.5
316,1555416178.613091,508.0,503.0,545.0,7.0,16.0,195.0,508.25,508.35
317,1555416178.6850657,507.0,508.0,563.0,7.0,16.0,195.0,508.05,508.3
318,1555416178.7545803,508.0,515.0,530.0,7.0,16.0,195.0,508.0,508.6
319,1555416178.8249571,508.0,513.0,526.0,7.0,16.0,119.0,507.95,509.0
320,1555416178.8965697,507.0,515.0,516.0,7.0,16.0,119.0,507.95,509.3
321,1555416178.973844,511.0,513.0,516.0,7.0,16.0,119.0,508.1,509.25
322,1555416179.0474808,512.0,513.0,504.0,7.0,16.0,119.0,508.45,509.55
323,1555416179.1165726,512.0,512.0,493.0,6.0,16.0,119.0,508.8,509.6
324,1555416179.1865323,510.0,512.0,481.0,6.0,16.0,119.0,508.8,509.9
325,1555416179.2574673,509.0,514.0,478.0,6.0,16.0,104.0,508.8,510.35
326,1555416179.3349516,509.0,516.0,491.0,6.0,16.0,104.0,508.9,510.55
327,1555416179.411481,509.0,516.0,518.0,6.0,16.0,104.0,509.0,510.85
328,1555416179.4837115,508.0,513.0,542.0,5.0,16.0,104.0,509.1,511.0
329,1555416179.5551095,509.0,512.0,519.0,5.0,16.0,104.0,509.2,510.8
330,1555416179.6352365,509.0,510.0,513.0,5.0,16.0,104.0,509.2,510.7
331,1555416179.72656,509.0,507.0,525.0,5.0,16.0,104.0,509.15,510.45
332,1555416179.8072672,510.0,502.0,529.0,5.0,16.0,95.0,509.25,510.2
333,1555416179.879286,511.0,501.0,523.0,5.0,16.0,88.0,509.2,510.0
334,1555416179.954116,510.0,502.0,500.0,5.0,15.0,85.0,509.2,510.1
335,1555416180.0446668,508.0,505.0,471.0,5.0,15.0,92.0,509.2,510.1
336,1555416180.1272564,509.0,508.0,453.0,5.0,15.0,110.0,509.25,510.35
337,1555416180.19893,508.0,507.0,462.0,5.0,15.0,89.0,509.3,510.3
338,1555416180.2669134,509.0,510.0,486.0,5.0,15.0,89.0,509.35,510.05
339,1555416180.3550348,507.0,511.0,509.0,5.0,15.0,89.0,509.3,509.95
340,1555416180.4311357,509.0,509.0,523.0,5.0,15.0,89.0,509.4,509.65
341,1555416180.51214,511.0,507.0,516.0,5.0,15.0,89.0,509.4,509.35
342,1555416180.5938787,512.0,504.0,528.0,5.0,15.0,89.0,509.4,508.9
343,1555416180.6846898,511.0,509.0,535.0,5.0,15.0,89.0,509.35,508.75
344,1555416180.772654,509.0,509.0,552.0,5.0,15.0,99.0,509.3,508.6
345,1555416180.8440711,510.0,512.0,528.0,5.0,15.0,99.0,509.35,508.5
346,1555416180.9185753,509.0,512.0,508.0,5.0,15.0,99.0,509.35,508.3
347,1555416180.9909954,508.0,513.0,479.0,5.0,12.0,99.0,509.3,508.15
348,1555416181.0694704,508.0,509.0,469.0,5.0,12.0,99.0,509.3,507.95
349,1555416181.1537097,508.0,506.0,492.0,5.0,12.0,99.0,509.25,507.65
350,1555416181.2352262,510.0,508.0,484.0,5.0,12.0,99.0,509.3,507.55
351,1555416181.3065698,510.0,503.0,476.0,5.0,12.0,99.0,509.35,507.35
352,1555416181.3872502,510.0,504.0,489.0,5.0,12.0,99.0,509.35,507.45
353,1555416181.473156,509.0,505.0,512.0,5.0,11.0,99.0,509.25,507.65
354,1555416181.5549915,509.0,505.0,524.0,5.0,10.0,99.0,509.2,507.8
355,1555416181.632815,507.0,510.0,533.0,5.0,10.0,99.0,509.15,508.05
356,1555416181.7243698,506.0,511.0,545.0,6.0,10.0,90.0,509.0,508.2
357,1555416181.8043337,507.0,515.0,514.0,6.0,12.0,83.0,508.95,508.6
358,1555416181.8839927,509.0,512.0,517.0,6.0,12.0,83.0,508.95,508.7
359,1555416181.963607,510.0,512.0,517.0,6.0,12.0,83.0,509.1,508.75
360,1555416182.044236,510.0,507.0,501.0,6.0,12.0,83.0,509.15,508.65
361,1555416182.1336346,510.0,508.0,504.0,6.0,12.0,83.0,509.1,508.7
362,1555416182.2114747,509.0,508.0,499.0,5.0,12.0,83.0,508.95,508.9
363,1555416182.287036,510.0,510.0,489.0,4.0,12.0,83.0,508.9,508.95
364,1555416182.3726554,509.0,511.0,507.0,4.0,12.0,76.0,508.9,509.05
365,1555416182.4679883,508.0,513.0,514.0,4.0,12.0,76.0,508.8,509.1
366,1555416182.5415366,509.0,507.0,517.0,4.0,12.0,76.0,508.8,508.85
367,1555416182.6149337,508.0,508.0,513.0,4.0,12.0,76.0,508.8,508.6
368,1555416182.6870737,508.0,511.0,508.0,4.0,12.0,69.0,508.8,508.7
369,1555416182.7604027,512.0,505.0,514.0,6.0,12.0,69.0,509.0,508.65
370,1555416182.8349411,509.0,504.0,515.0,6.0,12.0,69.0,508.95,508.45
371,1555416182.9140248,509.0,504.0,523.0,6.0,11.0,56.0,508.9,508.5
372,1555416183.0034337,509.0,504.0,506.0,6.0,11.0,56.0,508.85,508.5
373,1555416183.08343,509.0,504.0,492.0,6.0,11.0,56.0,508.85,508.45
374,1555416183.1629977,508.0,511.0,494.0,6.0,11.0,56.0,508.8,508.75
375,1555416183.2454991,509.0,514.0,502.0,6.0,11.0,56.0,508.9,508.95
376,1555416183.328927,511.0,517.0,496.0,5.0,13.0,34.0,509.15,509.25
377,1555416183.4098334,512.0,516.0,505.0,4.0,13.0,34.0,509.4,509.3
378,1555416183.4876301,509.0,510.0,507.0,4.0,13.0,34.0,509.4,509.2
379,1555416183.5634878,512.0,506.0,510.0,4.0,13.0,34.0,509.5,508.9
380,1555416183.634359,512.0,509.0,537.0,4.0,13.0,48.0,509.6,509.0
381,1555416183.7210693,509.0,514.0,550.0,4.0,13.0,61.0,509.55,509.3
382,1555416183.80897,509.0,515.0,522.0,4.0,13.0,61.0,509.55,509.65
383,1555416183.896656,511.0,517.0,493.0,4.0,13.0,58.0,509.6,510.0
384,1555416183.9705305,508.0,510.0,485.0,4.0,13.0,65.0,509.55,509.95
385,1555416184.0424476,509.0,510.0,482.0,4.0,13.0,68.0,509.6,509.8
386,1555416184.113694,511.0,508.0,486.0,4.0,13.0,68.0,509.7,509.85
387,1555416184.1880877,509.0,503.0,489.0,4.0,14.0,68.0,509.75,509.6
388,1555416184.2672906,510.0,500.0,471.0,4.0,17.0,79.0,509.85,509.05
389,1555416184.3460405,510.0,503.0,479.0,4.0,17.0,79.0,509.75,508.95
390,1555416184.4162052,509.0,506.0,496.0,4.0,17.0,79.0,509.75,509.05
391,1555416184.4960449,509.0,506.0,522.0,4.0,17.0,79.0,509.75,509.15
392,1555416184.5850692,506.0,509.0,551.0,6.0,17.0,80.0,509.6,509.4
393,1555416184.669952,507.0,511.0,539.0,6.0,17.0,80.0,509.5,509.75
394,1555416184.745313,508.0,514.0,524.0,6.0,17.0,80.0,509.5,509.9
395,1555416184.8196032,506.0,511.0,516.0,6.0,17.0,80.0,509.35,509.75
396,1555416184.8919532,508.0,508.0,518.0,6.0,17.0,80.0,509.2,509.3
397,1555416184.9664836,512.0,504.0,517.0,6.0,17.0,80.0,509.2,508.7
398,1555416185.0627913,510.0,507.0,506.0,6.0,17.0,80.0,509.25,508.55
399,1555416185.1462696,508.0,512.0,485.0,6.0,17.0,80.0,509.05,508.85
400,1555416185.2204812,509.0,514.0,474.0,6.0,17.0,80.0,508.9,509.1
401,1555416185.2953234,509.0,514.0,489.0,6.0,17.0,80.0,508.9,509.1
402,1555416185.3636189,508.0,514.0,499.0,6.0,17.0,80.0,508.85,509.05
403,1555416185.4521322,509.0,511.0,519.0,6.0,14.0,80.0,508.75,508.75
404,1555416185.5249846,507.0,512.0,532.0,6.0,14.0,80.0,508.7,508.85
405,1555416185.6026309,510.0,506.0,504.0,6.0,14.0,80.0,508.75,508.65
406,1555416185.6733074,510.0,501.0,504.0,6.0,14.0,80.0,508.7,508.3
407,1555416185.755985,511.0,502.0,526.0,6.0,14.0,80.0,508.8,508.25
408,1555416185.8384492,513.0,506.0,549.0,7.0,13.0,77.0,508.95,508.55
409,1555416185.9123197,512.0,507.0,530.0,7.0,13.0,77.0,509.05,508.75
410,1555416185.9882045,510.0,506.0,495.0,7.0,13.0,77.0,509.1,508.75
411,1555416186.0761766,507.0,511.0,476.0,7.0,13.0,77.0,509.0,509.0
412,1555416186.1654825,508.0,513.0,477.0,7.0,13.0,75.0,509.1,509.2
413,1555416186.2451713,507.0,515.0,496.0,7.0,14.0,75.0,509.1,509.4
414,1555416186.3188734,507.0,516.0,477.0,7.0,15.0,75.0,509.05,509.5
415,1555416186.389664,507.0,510.0,501.0,6.0,15.0,75.0,509.1,509.45
416,1555416186.4629514,510.0,509.0,503.0,6.0,15.0,75.0,509.2,509.5
417,1555416186.544962,509.0,509.0,495.0,6.0,15.0,75.0,509.05,509.75
418,1555416186.6372645,508.0,510.0,521.0,6.0,15.0,75.0,508.95,509.9
419,1555416186.7235713,508.0,510.0,517.0,6.0,15.0,75.0,508.95,509.8
420,1555416186.8033025,508.0,510.0,546.0,6.0,15.0,73.0,508.9,509.6
421,1555416186.8840568,508.0,511.0,551.0,6.0,15.0,75.0,508.85,509.45
422,1555416186.9698343,509.0,506.0,541.0,6.0,15.0,75.0,508.9,509.05
423,1555416187.0468826,511.0,501.0,532.0,6.0,15.0,75.0,509.0,508.55
424,1555416187.121923,509.0,499.0,526.0,6.0,17.0,75.0,509.1,507.9
425,1555416187.2044537,510.0,502.0,509.0,6.0,17.0,75.0,509.1,507.7
426,1555416187.2820704,508.0,505.0,498.0,6.0,17.0,75.0,509.0,507.9
427,1555416187.3681622,509.0,508.0,499.0,6.0,17.0,75.0,508.9,508.2
428,1555416187.4569209,508.0,513.0,508.0,5.0,17.0,75.0,508.65,508.55
429,1555416187.5313177,508.0,509.0,508.0,4.0,17.0,75.0,508.45,508.65
430,1555416187.6010761,507.0,512.0,530.0,4.0,17.0,75.0,508.3,508.95
431,1555416187.6776571,508.0,515.0,534.0,4.0,17.0,74.0,508.35,509.15
432,1555416187.76331,508.0,511.0,526.0,4.0,17.0,74.0,508.35,509.05
433,1555416187.84291,514.0,505.0,489.0,7.0,17.0,74.0,508.7,508.55
434,1555416187.9355416,511.0,514.0,503.0,7.0,16.0,62.0,508.9,508.45
435,1555416188.0062172,510.0,512.0,523.0,7.0,16.0,62.0,509.05,508.55
436,1555416188.0840497,509.0,511.0,526.0,7.0,16.0,62.0,509.0,508.65
437,1555416188.1758401,507.0,517.0,522.0,7.0,18.0,62.0,508.9,509.05
438,1555416188.2503972,508.0,512.0,505.0,7.0,18.0,62.0,508.9,509.15
439,1555416188.318707,508.0,506.0,501.0,7.0,18.0,62.0,508.9,508.95
440,1555416188.4106781,508.0,502.0,498.0,7.0,18.0,62.0,508.9,508.55
441,1555416188.4989755,510.0,507.0,507.0,7.0,18.0,52.0,509.0,508.35
442,1555416188.5791292,510.0,504.0,498.0,7.0,18.0,45.0,509.05,508.25
443,1555416188.654711,510.0,503.0,488.0,7.0,18.0,46.0,509.0,508.35
444,1555416188.7543316,509.0,501.0,493.0,7.0,16.0,46.0,509.0,508.45
445,1555416188.8370545,509.0,506.0,491.0,7.0,16.0,46.0,508.95,508.65
446,1555416188.9215505,508.0,509.0,505.0,7.0,16.0,46.0,508.95,508.85
447,1555416189.010887,508.0,511.0,513.0,7.0,16.0,46.0,508.9,509.0
448,1555416189.1114573,509.0,510.0,535.0,7.0,16.0,47.0,508.95,508.85
449,1555416189.204423,508.0,511.0,529.0,7.0,16.0,47.0,508.95,508.95
450,1555416189.283739,511.0,511.0,481.0,7.0,16.0,54.0,509.15,508.9
451,1555416189.3532376,510.0,508.0,485.0,7.0,16.0,54.0,509.25,508.55
452,1555416189.4241283,510.0,507.0,495.0,7.0,16.0,54.0,509.35,508.35
453,1555416189.4934103,509.0,510.0,493.0,4.0,16.0,54.0,509.1,508.6
454,1555416189.5730698,508.0,514.0,490.0,4.0,16.0,54.0,508.95,508.6
455,1555416189.669494,508.0,515.0,501.0,4.0,16.0,54.0,508.85,508.75
456,1555416189.751724,507.0,510.0,521.0,4.0,16.0,54.0,508.75,508.7
457,1555416189.8283772,508.0,507.0,523.0,4.0,14.0,54.0,508.8,508.2
458,1555416189.9361148,509.0,510.0,527.0,4.0,14.0,54.0,508.85,508.1
459,1555416190.0201383,512.0,502.0,525.0,5.0,14.0,54.0,509.05,507.9
460,1555416190.100124,508.0,502.0,512.0,5.0,14.0,54.0,509.05,507.9
461,1555416190.1830761,509.0,502.0,515.0,5.0,14.0,54.0,509.0,507.65
462,1555416190.259217,509.0,504.0,518.0,5.0,14.0,54.0,508.95,507.65
463,1555416190.347575,508.0,503.0,524.0,5.0,14.0,54.0,508.85,507.65
464,1555416190.419464,508.0,506.0,522.0,5.0,13.0,54.0,508.8,507.9
465,1555416190.5044134,509.0,510.0,489.0,5.0,13.0,54.0,508.8,508.1
466,1555416190.5921838,510.0,510.0,472.0,5.0,13.0,63.0,508.9,508.15
467,1555416190.6751115,509.0,506.0,470.0,5.0,13.0,65.0,508.95,507.9
468,1555416190.757144,510.0,501.0,472.0,5.0,14.0,59.0,509.0,507.45
469,1555416190.8393354,511.0,508.0,527.0,5.0,14.0,57.0,509.15,507.3
470,1555416190.914778,509.0,509.0,533.0,5.0,14.0,63.0,509.05,507.2
471,1555416190.9847746,509.0,511.0,543.0,5.0,14.0,73.0,509.0,507.35
472,1555416191.0810113,508.0,512.0,541.0,5.0,14.0,73.0,508.9,507.6
473,1555416191.1551435,508.0,513.0,537.0,5.0,14.0,73.0,508.85,507.75
474,1555416191.227628,507.0,509.0,524.0,5.0,14.0,73.0,508.8,507.5
475,1555416191.313205,507.0,510.0,517.0,5.0,12.0,73.0,508.75,507.25
476,1555416191.3900945,508.0,503.0,507.0,5.0,12.0,73.0,508.8,506.9
477,1555416191.469216,511.0,501.0,488.0,5.0,12.0,73.0,508.95,506.6
478,1555416191.5509014,511.0,503.0,472.0,5.0,12.0,73.0,509.05,506.25
479,1555416191.6236703,509.0,503.0,483.0,4.0,12.0,73.0,508.9,506.3
480,1555416191.7189927,508.0,506.0,512.0,4.0,12.0,73.0,508.9,506.5
481,1555416191.7978625,506.0,508.0,541.0,5.0,12.0,73.0,508.75,506.8
482,1555416191.889409,507.0,509.0,543.0,5.0,12.0,73.0,508.65,507.05
483,1555416191.980407,507.0,511.0,524.0,5.0,12.0,73.0,508.6,507.45
484,1555416192.067686,507.0,510.0,522.0,5.0,12.0,73.0,508.55,507.65
485,1555416192.144518,510.0,506.0,501.0,5.0,12.0,73.0,508.6,507.45
486,1555416192.2396119,508.0,504.0,495.0,5.0,12.0,73.0,508.5,507.15
487,1555416192.3207765,509.0,508.0,476.0,5.0,12.0,71.0,508.5,507.25
488,1555416192.409578,507.0,505.0,473.0,5.0,12.0,71.0,508.35,507.45
489,1555416192.4873204,508.0,511.0,494.0,5.0,12.0,71.0,508.2,507.6
490,1555416192.5609655,508.0,511.0,529.0,5.0,12.0,71.0,508.15,507.7
491,1555416192.634364,510.0,510.0,536.0,5.0,12.0,71.0,508.2,507.65
492,1555416192.7112267,510.0,506.0,530.0,5.0,12.0,71.0,508.3,507.35
493,1555416192.796555,509.0,502.0,516.0,5.0,10.0,71.0,508.35,506.8
494,1555416192.8760216,508.0,500.0,524.0,5.0,11.0,71.0,508.4,506.35
495,1555416192.9538317,509.0,504.0,531.0,5.0,11.0,71.0,508.5,506.05
496,1555416193.033446,510.0,504.0,533.0,5.0,11.0,71.0,508.6,506.1
497,1555416193.1150367,510.0,503.0,511.0,5.0,11.0,71.0,508.55,506.2
498,1555416193.2028437,509.0,507.0,453.0,4.0,11.0,90.0,508.45,506.4
499,1555416193.2889264,508.0,510.0,453.0,4.0,11.0,90.0,508.4,506.75
500,1555416193.377877,509.0,512.0,466.0,4.0,12.0,90.0,508.45,507.05
501,1555416193.4565482,509.0,514.0,493.0,3.0,14.0,90.0,508.6,507.35
502,1555416193.5386162,510.0,514.0,507.0,3.0,14.0,83.0,508.75,507.6
503,1555416193.6361825,513.0,509.0,521.0,6.0,14.0,83.0,509.05,507.5
504,1555416193.7186828,509.0,510.0,559.0,6.0,14.0,106.0,509.15,507.5
505,1555416193.8041456,509.0,513.0,567.0,6.0,14.0,114.0,509.1,507.85
506,1555416193.8860219,509.0,513.0,576.0,6.0,14.0,123.0,509.15,508.3
507,1555416193.973082,508.0,512.0,550.0,6.0,14.0,123.0,509.1,508.5
508,1555416194.0556736,509.0,512.0,499.0,5.0,14.0,123.0,509.2,508.85
509,1555416194.1450198,509.0,508.0,470.0,5.0,14.0,123.0,509.25,508.7
510,1555416194.2321985,508.0,504.0,478.0,5.0,14.0,123.0,509.25,508.35
511,1555416194.307515,509.0,499.0,483.0,5.0,15.0,123.0,509.2,507.8
512,1555416194.3855073,510.0,502.0,483.0,5.0,15.0,123.0,509.2,507.6
513,1555416194.4639344,509.0,505.0,472.0,5.0,15.0,123.0,509.2,507.75
514,1555416194.5626798,509.0,510.0,520.0,5.0,15.0,123.0,509.25,508.25
515,1555416194.657553,507.0,508.0,573.0,6.0,15.0,123.0,509.15,508.45
516,1555416194.7267513,508.0,511.0,573.0,6.0,15.0,123.0,509.05,508.8
517,1555416194.8148017,508.0,512.0,551.0,6.0,15.0,123.0,508.95,509.25
518,1555416194.8895152,511.0,506.0,494.0,6.0,15.0,123.0,509.05,509.2
519,1555416194.9762454,509.0,507.0,475.0,6.0,15.0,110.0,509.1,509.05
520,1555416195.0478735,511.0,508.0,487.0,6.0,15.0,106.0,509.2,508.85
521,1555416195.1225102,509.0,510.0,490.0,6.0,15.0,106.0,509.2,508.65
522,1555416195.207605,509.0,512.0,475.0,6.0,14.0,106.0,509.15,508.55
523,1555416195.2893631,508.0,512.0,463.0,4.0,14.0,113.0,508.9,508.7
524,1555416195.364073,507.0,515.0,454.0,4.0,16.0,122.0,508.8,508.95
525,1555416195.4375353,510.0,512.0,473.0,4.0,16.0,122.0,508.85,508.9
526,1555416195.513642,507.0,513.0,507.0,4.0,16.0,119.0,508.75,508.9
527,1555416195.593087,509.0,510.0,528.0,4.0,16.0,119.0,508.8,508.8
528,1555416195.6668534,511.0,502.0,561.0,4.0,16.0,119.0,508.9,508.3
529,1555416195.7412136,510.0,500.0,541.0,4.0,16.0,119.0,508.95,507.9
530,1555416195.8326843,512.0,499.0,533.0,5.0,16.0,119.0,509.15,507.65
531,1555416195.9125876,512.0,496.0,543.0,5.0,19.0,119.0,509.3,507.5
532,1555416195.9864879,512.0,496.0,543.0,5.0,19.0,119.0,509.4,507.2
533,1555416196.0747712,508.0,511.0,518.0,5.0,19.0,119.0,509.35,507.5
534,1555416196.1532602,507.0,510.0,519.0,5.0,19.0,119.0,509.25,507.5
535,1555416196.236979,505.0,515.0,542.0,7.0,19.0,119.0,509.15,507.85
536,1555416196.3114614,503.0,511.0,578.0,9.0,19.0,124.0,508.9,507.85
537,1555416196.3841362,507.0,510.0,581.0,9.0,19.0,127.0,508.85,507.75
538,1555416196.4696934,509.0,505.0,560.0,9.0,19.0,127.0,508.75,507.7
539,1555416196.5573225,509.0,505.0,560.0,9.0,19.0,127.0,508.75,507.6
540,1555416196.637899,509.0,512.0,491.0,9.0,19.0,127.0,508.65,507.8
541,1555416196.7135704,508.0,511.0,518.0,9.0,19.0,127.0,508.6,507.85
542,1555416196.79499,507.0,510.0,519.0,9.0,19.0,127.0,508.5,507.75
543,1555416196.876968,505.0,515.0,542.0,9.0,19.0,127.0,508.35,507.9
544,1555416196.9538586,503.0,511.0,578.0,9.0,19.0,108.0,508.15,507.7
545,1555416197.045835,507.0,510.0,581.0,9.0,19.0,90.0,508.0,507.6
546,1555416197.1276724,509.0,505.0,560.0,9.0,19.0,90.0,508.1,507.2
547,1555416197.2189684,508.0,514.0,529.0,9.0,19.0,90.0,508.05,507.4
548,1555416197.2941437,513.0,511.0,506.0,10.0,19.0,90.0,508.15,507.85
549,1555416197.3777585,512.0,502.0,460.0,10.0,19.0,121.0,508.25,507.95
550,1555416197.4502363,511.0,502.0,458.0,10.0,19.0,123.0,508.2,508.1
551,1555416197.5366478,511.0,505.0,462.0,10.0,19.0,123.0,508.15,508.55
552,1555416197.6281068,510.0,510.0,466.0,10.0,13.0,123.0,508.05,509.25
553,1555416197.7091897,508.0,508.0,479.0,10.0,13.0,123.0,508.05,509.1
554,1555416197.7939198,509.0,509.0,506.0,10.0,13.0,123.0,508.15,509.05
555,1555416197.877592,509.0,513.0,512.0,10.0,13.0,123.0,508.35,508.95
556,1555416197.961811,511.0,512.0,529.0,10.0,13.0,123.0,508.75,509.0
557,1555416198.0358357,510.0,513.0,537.0,10.0,13.0,123.0,508.9,509.15
558,1555416198.103756,507.0,515.0,544.0,10.0,13.0,123.0,508.8,509.65
559,1555416198.1863165,506.0,527.0,507.0,10.0,25.0,123.0,508.65,510.75
560,1555416198.2775564,504.0,514.0,480.0,10.0,25.0,123.0,508.4,510.85
561,1555416198.349776,507.0,512.0,471.0,10.0,25.0,123.0,508.35,510.9
562,1555416198.4237823,509.0,510.0,461.0,10.0,25.0,123.0,508.45,510.9
563,1555416198.5061672,510.0,509.0,443.0,10.0,25.0,138.0,508.7,510.6
564,1555416198.5910375,510.0,497.0,466.0,9.0,30.0,138.0,509.05,509.9
565,1555416198.6772518,509.0,493.0,538.0,9.0,34.0,117.0,509.15,509.05
566,1555416198.7587478,510.0,493.0,628.0,9.0,34.0,185.0,509.2,508.45
567,1555416198.8404186,507.0,497.0,529.0,9.0,34.0,185.0,509.15,507.6
568,1555416198.915645,506.0,496.0,530.0,8.0,34.0,185.0,508.8,506.85
569,1555416198.9863694,507.0,502.0,482.0,7.0,34.0,185.0,508.55,506.85
570,1555416199.0643508,506.0,505.0,432.0,7.0,34.0,196.0,508.3,507.0
571,1555416199.1464508,507.0,513.0,521.0,7.0,34.0,196.0,508.1,507.4
572,1555416199.2329352,506.0,507.0,446.0,7.0,34.0,196.0,507.9,507.25
573,1555416199.3293276,513.0,506.0,534.0,9.0,34.0,196.0,508.15,507.15
574,1555416199.4154694,511.0,508.0,537.0,9.0,34.0,196.0,508.25,507.1
575,1555416199.4967337,510.0,512.0,537.0,9.0,34.0,196.0,508.3,507.05
576,1555416199.5921388,508.0,511.0,502.0,9.0,34.0,196.0,508.15,507.0
577,1555416199.6854312,506.0,509.0,554.0,9.0,34.0,196.0,507.95,506.8
578,1555416199.7719636,508.0,510.0,546.0,9.0,34.0,196.0,508.0,506.55
579,1555416199.8554525,508.0,508.0,563.0,9.0,21.0,196.0,508.1,505.6
580,1555416199.9280207,509.0,503.0,540.0,7.0,20.0,196.0,508.35,505.05
581,1555416200.0174832,510.0,509.0,490.0,7.0,20.0,196.0,508.5,504.9
582,1555416200.0929048,508.0,504.0,500.0,7.0,20.0,196.0,508.45,504.6
583,1555416200.1839488,507.0,499.0,457.0,7.0,20.0,196.0,508.3,504.1
584,1555416200.2564266,508.0,500.0,456.0,7.0,20.0,196.0,508.2,504.25
585,1555416200.3294957,507.0,506.0,438.0,7.0,20.0,196.0,508.1,504.9
586,1555416200.4038908,507.0,512.0,442.0,7.0,17.0,131.0,507.95,505.85
587,1555416200.474452,507.0,513.0,503.0,7.0,17.0,131.0,507.95,506.65
588,1555416200.5450351,506.0,511.0,518.0,7.0,14.0,131.0,507.95,507.4
589,1555416200.6246686,507.0,511.0,563.0,7.0,14.0,131.0,507.95,507.85
590,1555416200.699683,506.0,513.0,569.0,7.0,14.0,131.0,507.95,508.25
591,1555416200.7850049,509.0,515.0,575.0,7.0,16.0,137.0,508.05,508.35
592,1555416200.8622925,508.0,506.0,588.0,7.0,16.0,150.0,508.15,508.3
593,1555416200.9526815,507.0,505.0,551.0,5.0,16.0,150.0,507.85,508.25
594,1555416201.028755,508.0,508.0,531.0,4.0,16.0,150.0,507.7,508.25
595,1555416201.117158,509.0,510.0,509.0,4.0,16.0,150.0,507.65,508.15
596,1555416201.1946037,506.0,504.0,449.0,4.0,16.0,150.0,507.55,507.8
597,1555416201.2721808,507.0,500.0,457.0,4.0,16.0,150.0,507.6,507.35
598,1555416201.3441226,507.0,504.0,471.0,4.0,16.0,150.0,507.55,507.05
599,1555416201.43087,510.0,499.0,462.0,4.0,16.0,150.0,507.65,506.6
600,1555416201.5149217,510.0,495.0,487.0,4.0,20.0,150.0,507.7,506.2
601,1555416201.5981667,509.0,494.0,523.0,4.0,21.0,150.0,507.65,505.45
602,1555416201.6905634,510.0,497.0,527.0,4.0,21.0,150.0,507.75,505.1
603,1555416201.7931113,508.0,506.0,521.0,4.0,21.0,150.0,507.8,505.45
604,1555416201.874919,509.0,507.0,511.0,4.0,21.0,150.0,507.85,505.8
605,1555416201.9643588,507.0,508.0,505.0,4.0,21.0,146.0,507.85,505.9
606,1555416202.0494285,507.0,506.0,506.0,4.0,21.0,139.0,507.85,505.6
607,1555416202.140838,508.0,513.0,502.0,4.0,21.0,139.0,507.9,505.6
608,1555416202.2230923,509.0,511.0,494.0,4.0,21.0,139.0,508.05,505.6
609,1555416202.3022754,511.0,510.0,490.0,5.0,21.0,139.0,508.25,505.55
610,1555416202.387037,509.0,507.0,495.0,5.0,21.0,139.0,508.4,505.25
611,1555416202.464666,509.0,509.0,496.0,5.0,19.0,139.0,508.4,504.95
612,1555416202.543004,510.0,517.0,489.0,5.0,23.0,102.0,508.5,505.5
613,1555416202.6207023,507.0,514.0,488.0,5.0,23.0,82.0,508.5,505.95
614,1555416202.6908486,506.0,509.0,503.0,5.0,23.0,78.0,508.4,506.0
615,1555416202.762534,507.0,511.0,536.0,5.0,23.0,87.0,508.3,506.05
616,1555416202.8502078,510.0,506.0,554.0,5.0,23.0,97.0,508.5,506.15
617,1555416202.9508445,508.0,502.0,525.0,5.0,23.0,92.0,508.55,506.25
618,1555416203.0363164,505.0,496.0,519.0,6.0,23.0,92.0,508.45,505.85
619,1555416203.1220229,510.0,499.0,517.0,6.0,23.0,67.0,508.45,505.85
620,1555416203.2034273,508.0,502.0,509.0,6.0,23.0,66.0,508.35,506.2
621,1555416203.2864146,507.0,499.0,485.0,6.0,21.0,69.0,508.25,506.45
622,1555416203.366678,506.0,507.0,471.0,6.0,21.0,83.0,508.05,506.95
623,1555416203.4379294,506.0,512.0,486.0,6.0,21.0,83.0,507.95,507.25
624,1555416203.5193603,504.0,509.0,514.0,7.0,21.0,83.0,507.7,507.35
625,1555416203.5970938,505.0,512.0,507.0,7.0,21.0,83.0,507.6,507.55
626,1555416203.6769059,508.0,514.0,535.0,7.0,21.0,83.0,507.65,507.95
627,1555416203.7684143,507.0,505.0,530.0,7.0,21.0,83.0,507.6,507.55
628,1555416203.8556488,506.0,502.0,527.0,7.0,21.0,83.0,507.45,507.1
629,1555416203.9436724,509.0,514.0,457.0,6.0,21.0,97.0,507.35,507.3
630,1555416204.0278206,485.0,539.0,475.0,25.0,43.0,97.0,506.15,508.9
631,1555416204.1072085,509.0,524.0,475.0,25.0,43.0,97.0,506.15,509.65
632,1555416204.1859846,504.0,525.0,534.0,25.0,43.0,97.0,505.85,510.05
633,1555416204.2565928,507.0,518.0,486.0,25.0,43.0,97.0,505.85,510.25
634,1555416204.341032,512.0,519.0,500.0,27.0,43.0,97.0,506.15,510.75
635,1555416204.427174,502.0,519.0,412.0,27.0,43.0,142.0,505.9,511.15
636,1555416204.5070498,515.0,506.0,411.0,30.0,43.0,124.0,506.15,511.15
637,1555416204.5867946,512.0,494.0,532.0,30.0,45.0,124.0,506.35,510.75
638,1555416204.6553333,514.0,479.0,549.0,30.0,60.0,138.0,506.8,509.9
639,1555416204.7277763,510.0,482.0,467.0,30.0,60.0,138.0,506.8,509.05
640,1555416204.7998633,530.0,525.0,495.0,45.0,60.0,138.0,507.9,510.2
641,1555416204.872456,529.0,513.0,481.0,45.0,60.0,138.0,509.0,510.9
642,1555416204.9527571,527.0,530.0,421.0,45.0,60.0,138.0,510.05,512.05
643,1555416205.032267,536.0,526.0,534.0,51.0,60.0,138.0,511.55,512.75
644,1555416205.1082659,545.0,508.0,387.0,60.0,60.0,162.0,513.6,512.7
645,1555416205.1819153,493.0,468.0,455.0,60.0,71.0,162.0,513.0,510.5
646,1555416205.2592978,484.0,551.0,199.0,61.0,83.0,350.0,511.8,512.35
647,1555416205.331605,505.0,618.0,270.0,61.0,150.0,350.0,511.7,518.0
648,1555416205.4162452,538.0,498.0,0.0,61.0,150.0,549.0,513.3,517.8
649,1555416205.4960487,537.0,336.0,0.0,61.0,282.0,549.0,514.7,508.9
650,1555416205.5698116,521.0,501.0,199.0,61.0,282.0,549.0,516.5,507.0
651,1555416205.6474812,535.0,592.0,297.0,61.0,282.0,549.0,517.8,510.4
652,1555416205.7283053,529.0,605.0,554.0,61.0,282.0,554.0,519.05,514.4
653,1555416205.8098903,530.0,594.0,595.0,61.0,282.0,595.0,520.2,518.2
654,1555416205.8911028,499.0,511.0,675.0,61.0,282.0,675.0,519.55,517.8
655,1555416205.9695904,499.0,534.0,436.0,61.0,282.0,675.0,519.4,518.55
656,1555416206.0407243,518.0,536.0,444.0,61.0,282.0,675.0,519.55,520.05
657,1555416206.1122196,533.0,495.0,394.0,61.0,282.0,675.0,520.6,520.1
658,1555416206.1885438,508.0,408.0,746.0,61.0,282.0,746.0,520.3,516.55
659,1555416206.2799385,490.0,386.0,376.0,61.0,282.0,746.0,519.3,511.75
660,1555416206.3599248,453.0,420.0,254.0,92.0,282.0,746.0,515.45,506.5
661,1555416206.4348824,413.0,337.0,845.0,132.0,282.0,845.0,509.65,497.7
662,1555416206.528425,452.0,380.0,1020.0,132.0,282.0,1020.0,505.9,490.2
663,1555416206.6001866,460.0,481.0,757.0,132.0,282.0,1020.0,502.1,487.95
664,1555416206.7010744,487.0,577.0,605.0,125.0,282.0,1020.0,499.2,491.4
665,1555416206.7807033,500.0,583.0,570.0,125.0,282.0,1020.0,499.55,497.15
666,1555416206.8664432,521.0,607.0,644.0,125.0,282.0,1020.0,501.4,499.95
667,1555416206.9588623,530.0,584.0,623.0,125.0,271.0,1020.0,502.65,498.25
668,1555416207.0512557,523.0,569.0,613.0,124.0,271.0,1020.0,501.9,501.8
669,1555416207.1394253,534.0,514.0,517.0,122.0,270.0,821.0,501.75,510.7
670,1555416207.2207394,547.0,493.0,464.0,134.0,270.0,766.0,503.05,510.3
671,1555416207.296344,555.0,504.0,447.0,142.0,270.0,766.0,504.05,505.9
672,1555416207.3764846,531.0,571.0,453.0,142.0,270.0,766.0,504.15,504.2
673,1555416207.452716,523.0,545.0,428.0,142.0,270.0,766.0,503.8,501.75
674,1555416207.5279515,508.0,457.0,759.0,142.0,270.0,766.0,504.25,499.05
675,1555416207.614868,533.0,408.0,863.0,142.0,270.0,766.0,505.95,492.75
676,1555416207.6941867,544.0,427.0,696.0,142.0,270.0,766.0,507.25,487.3
677,1555416207.7944868,465.0,475.0,638.0,142.0,270.0,766.0,503.85,486.3
678,1555416207.8751724,415.0,450.0,759.0,142.0,270.0,766.0,499.2,488.4
679,1555416207.9618735,424.0,415.0,794.0,142.0,270.0,766.0,495.9,489.85
680,1555416208.050939,428.0,458.0,693.0,142.0,270.0,592.0,494.65,491.75
681,1555416208.1353033,456.0,513.0,657.0,140.0,227.0,592.0,496.8,500.55
682,1555416208.2148862,476.0,558.0,627.0,140.0,199.0,435.0,498.0,509.45
683,1555416208.2914877,505.0,584.0,376.0,140.0,199.0,487.0,500.25,514.6
684,1555416208.3711417,515.0,611.0,452.0,140.0,203.0,487.0,501.65,516.3
685,1555416208.4552643,532.0,557.0,388.0,140.0,203.0,487.0,503.25,515.0
686,1555416208.5372581,528.0,522.0,293.0,140.0,203.0,570.0,503.6,510.75
687,1555416208.6163378,527.0,526.0,331.0,140.0,203.0,570.0,503.45,507.85
688,1555416208.6897717,526.0,519.0,323.0,140.0,203.0,570.0,503.6,505.35
689,1555416208.770107,531.0,525.0,473.0,140.0,203.0,570.0,503.45,505.9
690,1555416208.8485131,553.0,487.0,521.0,140.0,203.0,570.0,503.75,505.6
691,1555416208.934406,563.0,500.0,560.0,148.0,203.0,570.0,504.15,505.4
692,1555416209.023799,590.0,507.0,619.0,175.0,203.0,570.0,507.1,502.2
693,1555416209.1051197,610.0,501.0,600.0,195.0,203.0,570.0,511.45,500.0
694,1555416209.197249,602.0,472.0,535.0,195.0,203.0,570.0,516.15,500.75
695,1555416209.2723093,562.0,483.0,494.0,195.0,196.0,501.0,517.6,504.5
696,1555416209.3462954,533.0,556.0,442.0,195.0,196.0,501.0,517.05,510.95
697,1555416209.432763,519.0,601.0,364.0,195.0,196.0,501.0,519.75,517.25
698,1555416209.5124743,511.0,582.0,292.0,186.0,196.0,502.0,524.55,523.85
699,1555416209.5934057,500.0,555.0,388.0,182.0,153.0,401.0,528.35,530.85
700,1555416209.6761956,492.0,552.0,164.0,154.0,139.0,493.0,531.55,535.55
701,1555416209.7582307,509.0,502.0,252.0,134.0,139.0,463.0,534.2,535.0
702,1555416209.8403134,505.0,544.0,0.0,118.0,139.0,619.0,535.65,534.3
703,1555416209.9116054,518.0,557.0,327.0,118.0,139.0,619.0,536.3,532.95
704,1555416210.0081527,509.0,599.0,372.0,118.0,129.0,619.0,536.0,532.35
705,1555416210.0959594,499.0,542.0,668.0,118.0,129.0,668.0,534.35,531.6
706,1555416210.1880062,484.0,493.0,475.0,126.0,129.0,668.0,532.15,530.15
707,1555416210.2773945,477.0,532.0,359.0,133.0,129.0,668.0,529.65,530.45
708,1555416210.358428,493.0,527.0,332.0,133.0,129.0,668.0,528.0,530.85
709,1555416210.4438999,507.0,441.0,546.0,133.0,160.0,668.0,526.8,526.65
710,1555416210.5339274,504.0,453.0,575.0,133.0,160.0,668.0,524.35,524.95
711,1555416210.6134639,515.0,414.0,555.0,133.0,187.0,668.0,521.95,520.65
712,1555416210.7071187,503.0,479.0,535.0,133.0,187.0,668.0,517.6,519.25
713,1555416210.7888784,503.0,462.0,592.0,125.0,187.0,668.0,512.25,517.3
714,1555416210.8832786,463.0,415.0,531.0,99.0,187.0,668.0,505.3,514.45
715,1555416210.9688184,494.0,370.0,597.0,70.0,231.0,668.0,501.9,508.8
716,1555416211.0473354,532.0,377.0,523.0,69.0,231.0,668.0,501.85,499.85
717,1555416211.1289837,498.0,445.0,551.0,69.0,229.0,668.0,500.8,492.05
718,1555416211.2008877,543.0,456.0,510.0,80.0,229.0,668.0,502.4,485.75
719,1555416211.2850308,556.0,508.0,615.0,93.0,229.0,668.0,505.2,483.4
720,1555416211.3683732,562.0,470.0,571.0,99.0,229.0,668.0,508.7,479.3
721,1555416211.4571135,549.0,480.0,517.0,99.0,229.0,668.0,510.7,478.2
722,1555416211.5258768,555.0,463.0,514.0,99.0,229.0,341.0,513.2,474.15
723,1555416211.604817,537.0,507.0,652.0,99.0,229.0,336.0,514.15,471.65
724,1555416211.680905,520.0,479.0,616.0,99.0,172.0,336.0,514.7,465.65
725,1555416211.7761283,512.0,549.0,657.0,99.0,179.0,325.0,515.35,466.0
726,1555416211.847394,500.0,517.0,593.0,99.0,179.0,325.0,516.15,467.2
727,1555416211.9190025,496.0,489.0,572.0,99.0,179.0,325.0,517.1,465.05
728,1555416211.9902334,501.0,483.0,547.0,99.0,179.0,147.0,517.5,462.85
729,1555416212.066705,480.0,472.0,467.0,99.0,179.0,190.0,516.15,464.4
730,1555416212.1499119,393.0,392.0,608.0,169.0,179.0,190.0,510.6,461.35
731,1555416212.2385414,402.0,429.0,794.0,169.0,179.0,327.0,504.95,462.1
732,1555416212.3190722,453.0,493.0,753.0,169.0,179.0,327.0,502.45,462.8
733,1555416212.4012265,490.0,499.0,833.0,169.0,179.0,366.0,501.8,464.65
734,1555416212.4841251,517.0,491.0,926.0,169.0,179.0,459.0,504.5,468.45
735,1555416212.56798,517.0,523.0,797.0,169.0,172.0,459.0,505.65,476.1
736,1555416212.644751,482.0,562.0,711.0,169.0,170.0,459.0,503.15,485.35
737,1555416212.715046,530.0,569.0,531.0,169.0,177.0,459.0,504.75,491.55
738,1555416212.7977655,530.0,649.0,424.0,169.0,257.0,502.0,504.1,501.2
739,1555416212.874178,515.0,683.0,338.0,169.0,291.0,588.0,502.05,509.95
740,1555416212.9487853,540.0,627.0,327.0,162.0,291.0,599.0,500.95,517.8
741,1555416213.0219667,600.0,622.0,305.0,207.0,291.0,621.0,503.5,524.9
742,1555416213.09211,546.0,736.0,381.0,207.0,344.0,621.0,503.05,538.55
743,1555416213.1757028,507.0,762.0,315.0,207.0,370.0,621.0,501.55,551.3
744,1555416213.267987,437.0,681.0,271.0,207.0,370.0,655.0,497.4,561.4
745,1555416213.3499122,436.0,531.0,274.0,207.0,370.0,655.0,493.6,560.5
746,1555416213.4271643,466.0,392.0,301.0,207.0,370.0,655.0,491.9,554.25
747,1555416213.5058236,470.0,414.0,350.0,207.0,370.0,655.0,490.6,550.5
748,1555416213.5899637,456.0,494.0,366.0,207.0,370.0,655.0,488.35,551.05
749,1555416213.6792917,459.0,492.0,241.0,207.0,370.0,685.0,487.3,552.05
750,1555416213.7666934,492.0,375.0,298.0,198.0,387.0,685.0,492.25,551.2
751,1555416213.8573787,484.0,399.0,276.0,164.0,387.0,685.0,496.35,549.7
752,1555416213.9490106,496.0,325.0,341.0,164.0,437.0,685.0,498.5,541.3
753,1555416214.0195553,497.0,261.0,365.0,164.0,501.0,685.0,498.85,529.4
754,1555416214.1197948,444.0,232.0,266.0,164.0,530.0,556.0,495.2,516.45
755,1555416214.2037513,427.0,349.0,302.0,173.0,530.0,470.0,490.7,507.75
756,1555416214.2967246,420.0,349.0,464.0,180.0,530.0,290.0,487.6,497.1
757,1555416214.3773086,470.0,440.0,409.0,180.0,530.0,223.0,484.6,490.65
758,1555416214.4828176,536.0,554.0,443.0,180.0,530.0,223.0,484.9,485.9
759,1555416214.5558374,558.0,472.0,512.0,180.0,530.0,271.0,487.05,475.35
760,1555416214.6276329,538.0,495.0,559.0,180.0,530.0,318.0,486.95,468.75
761,1555416214.7144585,567.0,522.0,566.0,147.0,530.0,325.0,485.3,463.75
762,1555416214.789705,535.0,568.0,530.0,147.0,530.0,325.0,484.75,455.35
763,1555416214.868713,555.0,587.0,530.0,147.0,449.0,325.0,487.15,446.6
764,1555416214.9387228,534.0,577.0,565.0,147.0,355.0,325.0,492.0,441.4
765,1555416215.0090027,534.0,580.0,663.0,147.0,355.0,422.0,496.9,443.85
766,1555416215.0839596,549.0,524.0,644.0,147.0,355.0,422.0,501.05,450.45
767,1555416215.1711564,566.0,564.0,747.0,147.0,355.0,506.0,505.85,457.95
768,1555416215.2540388,573.0,547.0,772.0,153.0,355.0,531.0,511.7,460.6
769,1555416215.332817,596.0,533.0,829.0,176.0,355.0,563.0,518.55,462.65
770,1555416215.4103937,575.0,341.0,916.0,176.0,355.0,650.0,522.7,460.95
771,1555416215.4789553,564.0,239.0,955.0,176.0,355.0,689.0,526.7,452.95
772,1555416215.5520124,618.0,224.0,1020.0,198.0,363.0,754.0,532.8,447.9
773,1555416215.622243,588.0,300.0,997.0,198.0,363.0,754.0,537.35,449.85
774,1555416215.6934557,620.0,371.0,909.0,200.0,363.0,718.0,546.15,456.8
775,1555416215.7712727,601.0,424.0,788.0,200.0,363.0,611.0,554.85,460.55
776,1555416215.847168,528.0,432.0,684.0,150.0,363.0,611.0,560.25,464.7
777,1555416215.933611,497.0,525.0,682.0,123.0,363.0,577.0,561.6,468.95
778,1555416216.015832,442.0,513.0,624.0,178.0,363.0,508.0,556.9,466.9
779,1555416216.0916402,342.0,468.0,585.0,278.0,363.0,490.0,546.1,466.7
780,1555416216.1683376,375.0,486.0,599.0,278.0,363.0,490.0,537.95,466.25
781,1555416216.25252,406.0,558.0,543.0,278.0,363.0,490.0,529.9,468.05
782,1555416216.3402781,500.0,659.0,479.0,278.0,435.0,541.0,528.15,472.6
783,1555416216.414275,465.0,636.0,391.0,278.0,435.0,629.0,523.65,475.05
784,1555416216.5099244,517.0,638.0,348.0,278.0,435.0,672.0,522.8,478.1
785,1555416216.5882015,512.0,618.0,368.0,278.0,435.0,672.0,521.7,480.0
786,1555416216.674099,528.0,633.0,382.0,278.0,435.0,672.0,520.65,485.45
787,1555416216.7548282,550.0,658.0,400.0,278.0,435.0,672.0,519.85,490.15
788,1555416216.8339987,603.0,749.0,437.0,278.0,525.0,672.0,521.35,500.25
789,1555416216.9084861,546.0,759.0,467.0,278.0,535.0,672.0,518.85,511.55
790,1555416216.988031,507.0,820.0,422.0,278.0,596.0,672.0,515.45,535.5
791,1555416217.0616026,515.0,706.0,328.0,278.0,596.0,692.0,513.0,558.85
792,1555416217.131191,488.0,594.0,321.0,278.0,520.0,676.0,506.5,577.35
793,1555416217.2170396,483.0,535.0,355.0,278.0,449.0,588.0,501.25,589.1
794,1555416217.2924232,467.0,578.0,394.0,261.0,396.0,467.0,493.6,599.45
795,1555416217.3881667,461.0,545.0,358.0,261.0,388.0,363.0,486.6,605.5
796,1555416217.467448,455.0,569.0,263.0,261.0,352.0,419.0,482.95,612.35
797,1555416217.54462,468.0,529.0,244.0,261.0,352.0,380.0,481.5,612.55
798,1555416217.6257708,480.0,543.0,328.0,261.0,352.0,355.0,483.4,614.05
799,1555416217.705929,504.0,570.0,313.0,228.0,334.0,355.0,491.5,619.15
800,1555416217.7869437,499.0,443.0,359.0,197.0,377.0,299.0,497.7,617.0
801,1555416217.871606,524.0,340.0,399.0,148.0,480.0,235.0,503.6,606.1
802,1555416217.9612806,517.0,336.0,433.0,148.0,484.0,223.0,504.45,589.95
803,1555416218.047951,520.0,295.0,283.0,148.0,525.0,223.0,507.2,572.9
804,1555416218.1441085,513.0,280.0,457.0,148.0,540.0,223.0,507.0,555.0
805,1555416218.236973,510.0,300.0,653.0,148.0,540.0,409.0,506.9,539.1
806,1555416218.3154795,469.0,392.0,650.0,148.0,540.0,409.0,503.95,527.05
807,1555416218.4037097,468.0,434.0,530.0,148.0,540.0,409.0,499.85,515.85
808,1555416218.486969,481.0,462.0,602.0,91.0,540.0,409.0,493.75,501.5
809,1555416218.5640717,503.0,503.0,601.0,69.0,540.0,409.0,491.6,488.7
810,1555416218.6360881,502.0,559.0,846.0,69.0,426.0,602.0,491.35,475.65
811,1555416218.70738,469.0,570.0,874.0,69.0,314.0,630.0,489.05,468.85
812,1555416218.7782876,472.0,410.0,1020.0,69.0,298.0,776.0,488.25,459.65
813,1555416218.8505175,533.0,374.0,1021.0,78.0,298.0,777.0,490.75,451.6
814,1555416218.9340458,559.0,350.0,1021.0,104.0,290.0,777.0,495.35,440.2
815,1555416219.014176,705.0,371.0,1.0,250.0,290.0,1020.0,507.55,431.5
816,1555416219.1039197,776.0,418.0,2.0,308.0,290.0,1020.0,523.6,423.95
817,1555416219.1816995,649.0,491.0,30.0,308.0,290.0,1020.0,532.65,422.05
818,1555416219.262083,541.0,674.0,273.0,308.0,394.0,1020.0,535.7,428.6
819,1555416219.3430538,508.0,708.0,360.0,308.0,428.0,1020.0,535.9,435.5
820,1555416219.4234853,502.0,680.0,436.0,308.0,428.0,1020.0,536.05,447.35
821,1555416219.5192888,496.0,523.0,570.0,308.0,428.0,1020.0,534.65,456.5
822,1555416219.6091127,481.0,506.0,607.0,308.0,428.0,1020.0,532.85,465.0
823,1555416219.68674,513.0,460.0,637.0,308.0,428.0,1020.0,532.5,473.25
824,1555416219.7650719,498.0,412.0,608.0,308.0,408.0,1020.0,531.75,479.85
825,1555416219.8504658,504.0,369.0,656.0,308.0,358.0,1020.0,531.45,483.3
826,1555416219.9345133,498.0,399.0,661.0,308.0,358.0,1020.0,532.9,483.65
827,1555416220.00799,484.0,483.0,679.0,307.0,358.0,1020.0,533.7,486.1
828,1555416220.086976,483.0,556.0,686.0,307.0,358.0,1020.0,533.8,490.8
829,1555416220.1770113,470.0,597.0,678.0,307.0,358.0,1020.0,532.15,495.5
830,1555416220.2656646,474.0,628.0,657.0,307.0,358.0,1020.0,530.75,498.95
831,1555416220.3510478,489.0,626.0,580.0,306.0,358.0,1020.0,531.75,501.75
832,1555416220.4279978,505.0,817.0,547.0,306.0,467.0,1020.0,533.4,522.1
833,1555416220.5070453,529.0,967.0,525.0,306.0,617.0,1020.0,533.2,551.75
834,1555416220.585719,499.0,811.0,524.0,306.0,598.0,685.0,530.2,574.8
835,1555416220.6691518,495.0,499.0,518.0,306.0,598.0,684.0,519.7,581.2
836,1555416220.75941,512.0,500.0,489.0,179.0,598.0,656.0,506.5,585.3
837,1555416220.8381238,499.0,494.0,489.0,71.0,598.0,413.0,499.0,585.45
838,1555416220.927184,507.0,501.0,506.0,59.0,598.0,326.0,497.3,576.8
839,1555416221.007939,496.0,518.0,523.0,59.0,598.0,250.0,496.7,567.3
840,1555416221.0790787,510.0,505.0,507.0,59.0,598.0,197.0,497.1,558.55
841,1555416221.1558897,515.0,491.0,504.0,59.0,598.0,197.0,498.05,556.95
842,1555416221.2332509,511.0,531.0,483.0,59.0,598.0,203.0,499.55,558.2
843,1555416221.3176227,507.0,533.0,492.0,59.0,598.0,203.0,499.25,561.85
844,1555416221.3989997,509.0,505.0,506.0,59.0,598.0,203.0,499.8,566.5
845,1555416221.475645,499.0,506.0,503.0,59.0,568.0,203.0,499.55,573.35
846,1555416221.5475574,512.0,522.0,512.0,59.0,484.0,203.0,500.25,579.5
847,1555416221.6196804,512.0,514.0,513.0,59.0,476.0,203.0,501.65,581.05
848,1555416221.702821,506.0,499.0,523.0,59.0,476.0,195.0,502.8,578.2
849,1555416221.7895353,521.0,512.0,531.0,55.0,476.0,174.0,505.35,573.95
850,1555416221.8655002,524.0,500.0,511.0,40.0,476.0,97.0,507.85,567.55
851,1555416221.939447,518.0,526.0,512.0,34.0,476.0,64.0,509.3,562.55
852,1555416222.0088153,511.0,505.0,507.0,34.0,476.0,48.0,509.6,546.95
853,1555416222.1065407,506.0,510.0,518.0,29.0,320.0,48.0,508.45,524.1
854,1555416222.1873736,509.0,539.0,497.0,29.0,48.0,48.0,508.95,510.5
855,1555416222.258814,504.0,498.0,478.0,28.0,48.0,53.0,509.4,510.45
856,1555416222.3318305,499.0,510.0,501.0,28.0,48.0,53.0,508.75,510.95
857,1555416222.4023848,510.0,502.0,497.0,28.0,48.0,53.0,509.3,511.35
858,1555416222.4902813,514.0,555.0,494.0,28.0,64.0,53.0,509.65,514.05
859,1555416222.5868695,513.0,497.0,493.0,25.0,64.0,53.0,510.5,513.0
860,1555416222.6684167,513.0,487.0,510.0,25.0,68.0,53.0,510.65,512.1
861,1555416222.7461448,514.0,514.0,494.0,25.0,68.0,53.0,510.6,513.25
862,1555416222.8248415,512.0,494.0,501.0,25.0,68.0,53.0,510.65,511.4
863,1555416222.903664,510.0,503.0,512.0,25.0,68.0,53.0,510.8,509.9
864,1555416222.9748478,509.0,507.0,511.0,25.0,68.0,53.0,510.8,510.0
865,1555416223.0490477,515.0,510.0,495.0,25.0,68.0,53.0,511.6,510.2
866,1555416223.1252189,516.0,481.0,500.0,25.0,74.0,53.0,511.8,508.15
867,1555416223.1956525,516.0,505.0,515.0,25.0,74.0,53.0,512.0,507.7
868,1555416223.2727766,509.0,541.0,517.0,25.0,74.0,53.0,512.15,509.8
869,1555416223.3589816,503.0,504.0,499.0,25.0,74.0,40.0,511.25,509.4
870,1555416223.4402213,506.0,525.0,494.0,19.0,74.0,40.0,510.35,510.65
871,1555416223.5338686,511.0,509.0,512.0,17.0,74.0,40.0,510.0,509.8
872,1555416223.6137066,510.0,500.0,517.0,17.0,74.0,40.0,509.95,509.55
873,1555416223.700145,512.0,502.0,500.0,17.0,74.0,39.0,510.25,509.15
874,1555416223.7945275,512.0,495.0,520.0,17.0,74.0,42.0,510.4,506.95
875,1555416223.8786037,509.0,503.0,521.0,17.0,74.0,28.0,510.65,507.2
876,1555416223.9558055,506.0,502.0,505.0,13.0,74.0,28.0,511.0,506.8
877,1555416224.038827,522.0,509.0,497.0,19.0,74.0,28.0,511.6,507.15
878,1555416224.1193812,504.0,498.0,501.0,19.0,60.0,28.0,511.1,504.3
879,1555416224.2110155,502.0,506.0,501.0,20.0,60.0,27.0,510.55,504.75
880,1555416224.298995,502.0,534.0,512.0,20.0,60.0,27.0,510.0,507.1
881,1555416224.3816655,504.0,509.0,514.0,20.0,60.0,27.0,509.5,506.85
882,1555416224.463322,505.0,498.0,503.0,20.0,60.0,27.0,509.15,507.05
883,1555416224.5456195,518.0,498.0,523.0,20.0,60.0,29.0,509.55,506.8
884,1555416224.6261048,512.0,491.0,513.0,20.0,60.0,29.0,509.7,506.0
885,1555416224.7209184,508.0,511.0,515.0,20.0,60.0,29.0,509.35,506.05
886,1555416224.8038013,508.0,508.0,515.0,20.0,50.0,29.0,508.95,507.4
887,1555416224.8968484,504.0,519.0,499.0,20.0,50.0,29.0,508.35,508.1
888,1555416224.9776828,504.0,508.0,501.0,20.0,43.0,29.0,508.1,506.45
889,1555416225.0609095,498.0,496.0,498.0,24.0,43.0,29.0,507.85,506.05
890,1555416225.1465242,508.0,502.0,498.0,24.0,43.0,26.0,507.95,504.9
891,1555416225.2268353,524.0,501.0,505.0,26.0,43.0,26.0,508.6,504.5
892,1555416225.3110707,518.0,496.0,501.0,26.0,43.0,26.0,509.0,504.3
893,1555416225.4054356,519.0,493.0,504.0,26.0,43.0,26.0,509.35,503.85
894,1555416225.48319,517.0,545.0,506.0,26.0,54.0,26.0,509.6,506.35
895,1555416225.5628405,518.0,513.0,485.0,26.0,54.0,38.0,510.05,506.85
896,1555416225.6502476,507.0,525.0,454.0,26.0,54.0,69.0,510.1,508.0
897,1555416225.7321475,499.0,521.0,486.0,26.0,54.0,69.0,508.95,508.6
898,1555416225.8102071,502.0,539.0,506.0,26.0,54.0,69.0,508.85,510.65
899,1555416225.894808,519.0,517.0,497.0,26.0,54.0,69.0,509.7,511.2
900,1555416226.0102055,514.0,508.0,538.0,26.0,54.0,84.0,510.3,509.9
901,1555416226.0875108,516.0,517.0,571.0,26.0,54.0,117.0,510.9,510.3
902,1555416226.1737406,505.0,498.0,496.0,26.0,54.0,117.0,510.9,510.3
903,1555416226.246586,497.0,512.0,542.0,27.0,54.0,117.0,509.85,511.0
904,1555416226.3256927,501.0,540.0,517.0,27.0,52.0,117.0,509.3,513.45
905,1555416226.4000866,512.0,478.0,494.0,27.0,67.0,117.0,509.5,511.8
906,1555416226.4733005,502.0,489.0,565.0,27.0,67.0,117.0,509.2,510.85
907,1555416226.553409,512.0,485.0,579.0,27.0,67.0,125.0,509.6,509.15
908,1555416226.6442792,504.0,477.0,541.0,27.0,68.0,125.0,509.6,507.6
909,1555416226.7297504,506.0,515.0,512.0,27.0,68.0,125.0,510.0,508.55
910,1555416226.8016372,510.0,535.0,456.0,27.0,68.0,125.0,510.1,510.2
911,1555416226.898022,512.0,515.0,433.0,22.0,68.0,146.0,509.5,510.9
912,1555416226.9768987,502.0,506.0,482.0,22.0,68.0,146.0,508.7,511.4
913,1555416227.0526516,496.0,508.0,504.0,23.0,68.0,146.0,507.55,512.15
914,1555416227.1211848,512.0,481.0,537.0,23.0,63.0,146.0,507.3,508.95
915,1555416227.2219539,508.0,508.0,545.0,23.0,63.0,146.0,506.8,508.7
916,1555416227.2997262,507.0,500.0,520.0,23.0,63.0,146.0,506.8,507.45
917,1555416227.393112,512.0,492.0,507.0,23.0,63.0,146.0,507.45,506.0
918,1555416227.4746325,519.0,462.0,486.0,23.0,78.0,146.0,508.3,502.15
919,1555416227.5555735,511.0,498.0,479.0,23.0,78.0,146.0,507.9,501.2
920,1555416227.6327448,504.0,499.0,540.0,23.0,78.0,146.0,507.4,500.75
921,1555416227.7141144,503.0,491.0,535.0,23.0,78.0,146.0,506.75,499.45
922,1555416227.7830422,497.0,525.0,529.0,23.0,78.0,146.0,506.35,500.8
923,1555416227.8544965,501.0,523.0,535.0,23.0,78.0,146.0,506.55,501.35
924,1555416227.9253657,504.0,487.0,525.0,23.0,73.0,146.0,506.7,498.7
925,1555416228.002458,508.0,511.0,500.0,23.0,73.0,146.0,506.5,500.35
926,1555416228.0868757,507.0,526.0,457.0,23.0,73.0,146.0,506.75,502.2
927,1555416228.1762438,496.0,508.0,444.0,23.0,73.0,112.0,505.95,503.35
928,1555416228.2604074,503.0,530.0,469.0,23.0,73.0,112.0,505.9,506.0
929,1555416228.3530042,515.0,559.0,498.0,23.0,97.0,112.0,506.35,508.2
930,1555416228.4343455,514.0,522.0,511.0,23.0,97.0,112.0,506.55,507.55
931,1555416228.5342517,517.0,530.0,521.0,23.0,97.0,101.0,506.8,508.3
932,1555416228.6288733,532.0,504.0,482.0,36.0,97.0,101.0,508.3,508.2
933,1555416228.7028136,524.0,517.0,461.0,36.0,97.0,101.0,509.7,508.65
934,1555416228.7789323,500.0,505.0,477.0,36.0,97.0,101.0,509.1,509.85
935,1555416228.8582985,511.0,538.0,451.0,36.0,97.0,96.0,509.25,511.35
936,1555416228.9455328,507.0,511.0,451.0,36.0,97.0,96.0,509.25,511.9
937,1555416229.026336,493.0,524.0,529.0,39.0,97.0,96.0,508.3,513.5
938,1555416229.117691,502.0,508.0,526.0,39.0,72.0,96.0,507.45,515.8
939,1555416229.202369,508.0,482.0,536.0,39.0,77.0,96.0,507.3,515.0
940,1555416229.2869987,516.0,494.0,563.0,39.0,77.0,119.0,507.9,514.75
941,1555416229.3847682,504.0,442.0,535.0,39.0,117.0,119.0,507.95,512.3
942,1555416229.4619632,498.0,526.0,519.0,39.0,117.0,119.0,508.0,512.35
943,1555416229.5493195,488.0,447.0,518.0,44.0,117.0,119.0,507.35,508.55
944,1555416229.6255805,505.0,475.0,518.0,44.0,117.0,119.0,507.4,507.95
945,1555416229.7016015,498.0,520.0,510.0,44.0,117.0,119.0,506.9,508.4
946,1555416229.7830596,503.0,491.0,523.0,44.0,117.0,119.0,506.7,506.65
947,1555416229.860657,504.0,520.0,525.0,44.0,117.0,112.0,507.1,507.25
948,1555416229.9456713,516.0,533.0,519.0,44.0,117.0,112.0,507.75,507.4
949,1555416230.0254543,507.0,503.0,501.0,44.0,96.0,112.0,507.35,504.6
950,1555416230.107546,504.0,514.0,479.0,44.0,96.0,112.0,506.85,504.2
951,1555416230.1894588,501.0,509.0,493.0,44.0,96.0,112.0,506.05,503.15
952,1555416230.2629962,501.0,513.0,479.0,36.0,96.0,112.0,504.5,503.6
953,1555416230.3371272,506.0,509.0,475.0,28.0,96.0,112.0,503.6,503.2
954,1555416230.4235597,524.0,540.0,487.0,36.0,98.0,112.0,504.8,504.95
955,1555416230.5031302,526.0,495.0,533.0,38.0,98.0,112.0,505.55,502.8
956,1555416230.5805793,518.0,508.0,568.0,38.0,98.0,93.0,506.1,502.65
957,1555416230.6623528,520.0,488.0,570.0,38.0,98.0,95.0,507.45,500.85
958,1555416230.7466917,516.0,480.0,455.0,38.0,98.0,115.0,508.15,499.45
959,1555416230.8312705,523.0,500.0,472.0,38.0,98.0,115.0,508.9,500.35
960,1555416230.9080057,512.0,520.0,544.0,38.0,98.0,115.0,508.7,501.65
961,1555416230.989873,503.0,507.0,454.0,38.0,93.0,116.0,508.65,504.9
962,1555416231.0861533,498.0,521.0,520.0,38.0,93.0,116.0,508.65,504.65
963,1555416231.1726913,506.0,526.0,504.0,28.0,65.0,116.0,509.55,508.6
964,1555416231.2583742,513.0,498.0,490.0,28.0,60.0,116.0,509.95,509.75
965,1555416231.3554416,502.0,477.0,491.0,28.0,63.0,116.0,510.15,507.6
966,1555416231.445831,505.0,506.0,466.0,28.0,63.0,116.0,510.25,508.35
967,1555416231.5378945,509.0,487.0,495.0,28.0,63.0,116.0,510.5,506.7
968,1555416231.6166,485.0,498.0,508.0,41.0,63.0,116.0,508.95,504.95
969,1555416231.6879785,486.0,485.0,534.0,41.0,63.0,116.0,507.9,504.05
970,1555416231.7838724,515.0,545.0,514.0,41.0,68.0,116.0,508.45,505.6
971,1555416231.8666856,495.0,521.0,508.0,41.0,68.0,116.0,508.15,506.2
972,1555416231.9454815,491.0,537.0,473.0,41.0,68.0,116.0,507.65,507.4
973,1555416232.0258548,502.0,527.0,499.0,41.0,68.0,116.0,507.45,508.3
974,1555416232.105235,504.0,525.0,473.0,41.0,68.0,116.0,506.45,507.55
975,1555416232.1839883,514.0,524.0,531.0,38.0,68.0,116.0,505.85,509.0
976,1555416232.252719,521.0,544.0,542.0,38.0,68.0,116.0,506.0,510.8
977,1555416232.3255098,517.0,470.0,529.0,38.0,75.0,90.0,505.85,509.9
978,1555416232.3969102,517.0,483.0,539.0,38.0,75.0,90.0,505.9,510.05
979,1555416232.4745464,515.0,500.0,519.0,36.0,75.0,90.0,505.5,510.05
980,1555416232.5594733,514.0,488.0,521.0,36.0,75.0,88.0,505.6,508.45
981,1555416232.6436882,516.0,500.0,486.0,36.0,75.0,76.0,506.25,508.1
982,1555416232.7218108,501.0,488.0,514.0,36.0,75.0,76.0,506.4,506.45
983,1555416232.7991624,497.0,508.0,513.0,36.0,75.0,76.0,505.95,505.55
984,1555416232.878772,508.0,491.0,483.0,36.0,75.0,76.0,505.7,505.2
985,1555416232.9520335,506.0,500.0,483.0,36.0,75.0,76.0,505.9,506.35
986,1555416233.0245404,519.0,527.0,488.0,36.0,75.0,69.0,506.6,507.4
987,1555416233.1064808,513.0,553.0,515.0,36.0,83.0,69.0,506.8,510.7
988,1555416233.1940773,521.0,507.0,531.0,35.0,83.0,69.0,508.6,511.15
989,1555416233.2867389,519.0,553.0,532.0,30.0,83.0,69.0,510.25,514.55
990,1555416233.3614187,510.0,518.0,507.0,30.0,83.0,69.0,510.0,513.2
991,1555416233.4367943,505.0,513.0,533.0,30.0,83.0,69.0,510.5,512.8
992,1555416233.5138612,502.0,474.0,511.0,24.0,83.0,69.0,511.05,509.65
993,1555416233.5952032,505.0,515.0,475.0,24.0,83.0,69.0,511.2,509.05
994,1555416233.672954,506.0,506.0,489.0,24.0,83.0,67.0,511.3,508.1
995,1555416233.7551334,502.0,508.0,505.0,24.0,83.0,67.0,510.7,507.3
996,1555416233.8430858,518.0,520.0,501.0,24.0,83.0,64.0,510.55,506.1
997,1555416233.9201982,497.0,494.0,507.0,24.0,79.0,64.0,509.55,507.3
998,1555416234.00165,486.0,459.0,516.0,35.0,94.0,58.0,508.0,506.1
999,1555416234.073849,512.0,472.0,488.0,35.0,94.0,58.0,507.85,504.7
1000,1555416234.1492703,492.0,485.0,495.0,35.0,94.0,58.0,506.75,504.55
1001,1555416234.2206247,505.0,501.0,493.0,35.0,94.0,58.0,506.2,504.6
1002,1555416234.295203,499.0,503.0,487.0,35.0,94.0,58.0,506.1,505.35
1003,1555416234.3637211,497.0,480.0,491.0,35.0,94.0,58.0,506.1,503.95
1004,1555416234.4415948,508.0,495.0,494.0,35.0,94.0,58.0,506.1,504.15
1005,1555416234.5235996,515.0,504.0,503.0,35.0,94.0,58.0,506.55,504.35
1006,1555416234.609959,518.0,501.0,500.0,35.0,94.0,58.0,506.5,503.05
1007,1555416234.6900482,498.0,489.0,504.0,35.0,94.0,58.0,505.75,499.85
1008,1555416234.7599337,510.0,493.0,503.0,33.0,94.0,58.0,505.2,499.15
1009,1555416234.8350353,510.0,512.0,487.0,32.0,61.0,58.0,504.75,497.1
1010,1555416234.9134734,511.0,520.0,484.0,32.0,61.0,58.0,504.8,497.2
1011,1555416235.0073214,504.0,488.0,514.0,32.0,61.0,41.0,504.75,495.95
1012,1555416235.1026616,513.0,505.0,520.0,32.0,61.0,45.0,505.3,497.5
1013,1555416235.1879601,510.0,520.0,546.0,32.0,61.0,62.0,505.55,497.75
1014,1555416235.272316,512.0,502.0,551.0,32.0,61.0,67.0,505.85,497.55
1015,1555416235.3517675,509.0,488.0,547.0,32.0,61.0,67.0,506.2,496.55
1016,1555416235.4245064,523.0,470.0,516.0,37.0,61.0,67.0,506.45,494.05
1017,1555416235.5025287,517.0,484.0,489.0,37.0,61.0,67.0,507.45,493.55
1018,1555416235.583373,517.0,485.0,479.0,31.0,50.0,72.0,509.0,494.85
1019,1555416235.6656353,504.0,471.0,484.0,31.0,50.0,72.0,508.6,494.8
1020,1555416235.7390177,513.0,494.0,495.0,26.0,50.0,72.0,509.65,495.25
1021,1555416235.8238654,507.0,500.0,505.0,26.0,50.0,72.0,509.75,495.2
1022,1555416235.923944,508.0,504.0,511.0,26.0,50.0,72.0,510.2,495.25
1023,1555416236.0164537,503.0,513.0,515.0,25.0,50.0,72.0,510.5,496.9
1024,1555416236.0873997,516.0,509.0,494.0,25.0,50.0,72.0,510.9,497.6
1025,1555416236.1585228,511.0,493.0,484.0,25.0,50.0,72.0,510.7,497.05
1026,1555416236.2558165,517.0,506.0,496.0,25.0,50.0,72.0,510.65,497.3
1027,1555416236.3361795,511.0,497.0,503.0,20.0,50.0,72.0,511.3,497.7
1028,1555416236.4247813,511.0,548.0,511.0,20.0,78.0,72.0,511.35,500.45
1029,1555416236.5096533,489.0,491.0,516.0,34.0,78.0,72.0,510.3,499.4
1030,1555416236.5803885,512.0,521.0,530.0,34.0,78.0,72.0,510.35,499.45
1031,1555416236.6702878,509.0,507.0,532.0,34.0,78.0,72.0,510.6,500.4
1032,1555416236.7496178,507.0,502.0,528.0,34.0,78.0,72.0,510.3,500.25
1033,1555416236.838119,519.0,499.0,518.0,34.0,78.0,72.0,510.75,499.2
1034,1555416236.9232194,519.0,476.0,507.0,34.0,78.0,68.0,511.1,497.9
1035,1555416237.0042543,511.0,497.0,501.0,34.0,78.0,53.0,511.2,498.35
1036,1555416237.092686,512.0,505.0,485.0,30.0,77.0,53.0,510.65,500.1
1037,1555416237.1915565,503.0,497.0,503.0,30.0,77.0,53.0,509.95,500.75
1038,1555416237.2728238,510.0,511.0,514.0,30.0,77.0,48.0,509.6,502.05
1039,1555416237.360929,507.0,499.0,517.0,30.0,72.0,48.0,509.75,503.45
1040,1555416237.4487689,505.0,504.0,509.0,30.0,72.0,48.0,509.35,503.95
1041,1555416237.525706,513.0,496.0,496.0,30.0,72.0,48.0,509.65,503.75
1042,1555416237.6029286,506.0,508.0,490.0,30.0,72.0,48.0,509.55,503.95
1043,1555416237.674275,507.0,505.0,484.0,30.0,72.0,48.0,509.75,503.55
1044,1555416237.7486048,512.0,506.0,489.0,30.0,72.0,48.0,509.55,503.4
1045,1555416237.8317606,510.0,510.0,503.0,30.0,72.0,48.0,509.5,504.25
1046,1555416237.9183397,518.0,519.0,515.0,30.0,72.0,48.0,509.55,504.9
1047,1555416238.002118,508.0,519.0,517.0,30.0,72.0,48.0,509.4,506.0
1048,1555416238.0838876,512.0,513.0,515.0,30.0,45.0,48.0,509.45,504.25
1049,1555416238.165803,512.0,514.0,508.0,16.0,45.0,48.0,510.6,505.4
1050,1555416238.2545118,508.0,539.0,498.0,16.0,63.0,48.0,510.4,506.3
1051,1555416238.3328457,516.0,491.0,495.0,16.0,63.0,44.0,510.75,505.5
1052,1555416238.4092362,512.0,496.0,485.0,16.0,63.0,34.0,511.0,505.2
1053,1555416238.483777,510.0,494.0,504.0,16.0,63.0,33.0,510.55,504.95
1054,1555416238.5633085,507.0,504.0,519.0,15.0,48.0,35.0,509.95,506.35
1055,1555416238.6369643,489.0,568.0,523.0,29.0,77.0,39.0,508.85,509.9
1056,1555416238.7078383,511.0,488.0,511.0,29.0,80.0,39.0,508.8,509.05
1057,1555416238.799858,505.0,513.0,504.0,29.0,80.0,39.0,508.9,509.85
1058,1555416238.889121,499.0,501.0,501.0,29.0,80.0,39.0,508.35,509.35
1059,1555416238.9704573,515.0,498.0,502.0,29.0,80.0,39.0,508.75,509.3
1060,1555416239.0473135,510.0,510.0,494.0,29.0,80.0,39.0,509.0,509.6
1061,1555416239.11936,513.0,503.0,496.0,29.0,80.0,39.0,509.0,509.95
1062,1555416239.1909876,513.0,519.0,511.0,29.0,80.0,39.0,509.35,510.5
1063,1555416239.26854,512.0,509.0,524.0,29.0,80.0,39.0,509.6,510.7
1064,1555416239.3458624,513.0,504.0,512.0,29.0,80.0,39.0,509.65,510.6
1065,1555416239.4229772,516.0,515.0,500.0,29.0,80.0,39.0,509.95,510.85
1066,1555416239.4926102,507.0,504.0,496.0,27.0,80.0,39.0,509.4,510.1
1067,1555416239.5648258,497.0,523.0,502.0,27.0,80.0,39.0,508.85,510.3
1068,1555416239.6404715,509.0,500.0,506.0,27.0,80.0,39.0,508.7,509.65
1069,1555416239.7197907,519.0,541.0,510.0,30.0,80.0,39.0,509.05,511.0
1070,1555416239.7963793,505.0,503.0,518.0,30.0,80.0,39.0,508.9,509.2
1071,1555416239.892882,507.0,484.0,515.0,30.0,84.0,39.0,508.45,508.85
1072,1555416239.967928,512.0,491.0,513.0,30.0,84.0,30.0,508.45,508.6
1073,1555416240.0636919,508.0,535.0,508.0,30.0,84.0,30.0,508.35,510.65
1074,1555416240.1429262,506.0,543.0,491.0,30.0,84.0,33.0,508.3,512.6
1075,1555416240.2201982,507.0,518.0,493.0,22.0,59.0,33.0,509.2,510.1
1076,1555416240.2936587,500.0,514.0,491.0,22.0,59.0,33.0,508.65,511.4
1077,1555416240.3850982,504.0,507.0,494.0,22.0,59.0,33.0,508.6,511.1
1078,1555416240.4664752,510.0,499.0,512.0,22.0,59.0,33.0,509.15,511.0
1079,1555416240.5433502,505.0,535.0,524.0,22.0,59.0,33.0,508.65,512.85
1080,1555416240.6170084,523.0,508.0,524.0,26.0,59.0,33.0,509.3,512.75
1081,1555416240.6898575,509.0,495.0,508.0,26.0,59.0,33.0,509.1,512.35
1082,1555416240.7606022,503.0,517.0,496.0,26.0,59.0,33.0,508.6,512.25
1083,1555416240.8317494,512.0,526.0,495.0,26.0,59.0,33.0,508.6,513.1
1084,1555416240.9276774,503.0,530.0,488.0,26.0,59.0,36.0,508.1,514.4
1085,1555416241.0053384,505.0,487.0,489.0,26.0,59.0,36.0,507.55,513.0
1086,1555416241.0938654,511.0,508.0,519.0,26.0,59.0,36.0,507.75,513.2
1087,1555416241.192813,501.0,512.0,533.0,23.0,59.0,45.0,507.95,512.65
1088,1555416241.2738132,514.0,497.0,504.0,23.0,59.0,45.0,508.2,512.5
1089,1555416241.3533566,520.0,483.0,499.0,23.0,60.0,45.0,508.25,509.6
1090,1555416241.441203,519.0,492.0,504.0,23.0,60.0,45.0,508.95,509.05
1091,1555416241.5158648,513.0,486.0,506.0,23.0,60.0,45.0,509.25,509.15
1092,1555416241.6207912,507.0,499.0,514.0,23.0,60.0,45.0,509.0,509.55
1093,1555416241.708559,503.0,542.0,533.0,23.0,60.0,45.0,508.75,509.9
1094,1555416241.799914,511.0,515.0,518.0,23.0,59.0,45.0,509.0,508.5
1095,1555416241.87836,506.0,513.0,510.0,23.0,59.0,45.0,508.95,508.25
1096,1555416241.968014,503.0,520.0,517.0,22.0,59.0,45.0,509.1,508.55
1097,1555416242.05306,515.0,527.0,518.0,22.0,59.0,45.0,509.65,509.55
1098,1555416242.1368697,512.0,524.0,509.0,22.0,59.0,45.0,509.75,510.8
1099,1555416242.2205908,509.0,514.0,514.0,22.0,59.0,45.0,509.95,509.75
1100,1555416242.296942,508.0,513.0,517.0,19.0,59.0,45.0,509.2,510.0
1101,1555416242.3816962,509.0,507.0,514.0,19.0,59.0,45.0,509.2,510.6
1102,1555416242.453977,507.0,520.0,518.0,19.0,59.0,45.0,509.4,510.75
1103,1555416242.5318198,516.0,497.0,523.0,19.0,59.0,45.0,509.6,509.3
1104,1555416242.6118689,502.0,505.0,509.0,19.0,59.0,44.0,509.55,508.05
1105,1555416242.701666,516.0,476.0,513.0,19.0,66.0,34.0,510.1,507.5
1106,1555416242.783173,514.0,486.0,521.0,19.0,66.0,34.0,510.25,506.4
1107,1555416242.8541691,509.0,497.0,509.0,18.0,66.0,34.0,510.65,505.65
1108,1555416242.935011,508.0,529.0,500.0,18.0,66.0,34.0,510.35,507.25
1109,1555416243.017723,511.0,518.0,507.0,17.0,66.0,33.0,509.9,509.0
1110,1555416243.093531,505.0,541.0,519.0,14.0,66.0,33.0,509.2,511.45
1111,1555416243.1884184,509.0,530.0,509.0,14.0,66.0,33.0,509.0,513.65
1112,1555416243.2793157,496.0,529.0,522.0,20.0,66.0,33.0,508.45,515.15
1113,1555416243.35702,503.0,503.0,525.0,20.0,65.0,25.0,508.45,513.2
1114,1555416243.434907,504.0,482.0,492.0,20.0,65.0,33.0,508.1,511.55
1115,1555416243.508519,505.0,508.0,501.0,20.0,65.0,33.0,508.05,511.3
1116,1555416243.5831938,512.0,505.0,515.0,20.0,65.0,33.0,508.5,510.55
1117,1555416243.6576087,506.0,512.0,516.0,20.0,65.0,33.0,508.05,509.8
1118,1555416243.7278533,499.0,506.0,507.0,20.0,65.0,33.0,507.4,508.9
1119,1555416243.7985275,515.0,554.0,517.0,20.0,78.0,33.0,507.7,510.9
1120,1555416243.8674455,510.0,486.0,523.0,20.0,78.0,33.0,507.8,509.55
1121,1555416243.9426064,505.0,508.0,526.0,20.0,78.0,34.0,507.6,509.6
1122,1555416244.021131,512.0,510.0,485.0,20.0,78.0,41.0,507.85,509.1
1123,1555416244.1030493,510.0,528.0,465.0,20.0,78.0,61.0,507.55,510.65
1124,1555416244.1876848,518.0,495.0,491.0,22.0,78.0,61.0,508.35,510.15
1125,1555416244.2584558,508.0,505.0,460.0,22.0,72.0,66.0,507.95,511.6
1126,1555416244.3295863,503.0,525.0,461.0,22.0,72.0,66.0,507.4,513.55
1127,1555416244.4086983,508.0,519.0,493.0,22.0,72.0,66.0,507.35,514.65
1128,1555416244.490733,504.0,495.0,525.0,22.0,72.0,66.0,507.15,512.95
1129,1555416244.565319,513.0,518.0,524.0,22.0,72.0,66.0,507.25,512.95
1130,1555416244.638491,500.0,514.0,536.0,22.0,72.0,76.0,507.0,511.6
1131,1555416244.7475057,496.0,519.0,533.0,22.0,72.0,76.0,506.35,511.05
1132,1555416244.824743,499.0,517.0,508.0,22.0,72.0,76.0,506.5,510.45
1133,1555416244.906393,504.0,499.0,482.0,22.0,72.0,76.0,506.55,510.25
1134,1555416244.9884582,513.0,498.0,504.0,22.0,68.0,76.0,507.0,511.05
1135,1555416245.061318,503.0,488.0,524.0,22.0,68.0,76.0,506.9,510.05
1136,1555416245.157134,511.0,502.0,499.0,22.0,68.0,76.0,506.85,509.9
1137,1555416245.2470217,507.0,502.0,515.0,22.0,68.0,76.0,506.9,509.4
1138,1555416245.3232455,503.0,504.0,473.0,22.0,68.0,76.0,507.1,509.3
1139,1555416245.3965905,503.0,504.0,473.0,22.0,42.0,76.0,506.5,506.8
1140,1555416245.4680715,508.0,465.0,556.0,22.0,63.0,96.0,506.4,505.75
1141,1555416245.5513585,503.0,499.0,544.0,22.0,63.0,96.0,506.3,505.3
1142,1555416245.6254973,511.0,512.0,532.0,22.0,63.0,96.0,506.25,505.4
1143,1555416245.713097,499.0,504.0,532.0,22.0,60.0,96.0,505.7,504.2
1144,1555416245.8032868,506.0,501.0,522.0,17.0,60.0,96.0,505.1,504.5
1145,1555416245.876104,504.0,533.0,513.0,17.0,68.0,95.0,504.9,505.9
1146,1555416245.9493144,518.0,546.0,517.0,22.0,81.0,83.0,505.65,506.95
1147,1555416246.0204809,517.0,493.0,530.0,22.0,81.0,83.0,506.1,505.65
1148,1555416246.0917823,513.0,503.0,524.0,22.0,81.0,83.0,506.55,506.05
1149,1555416246.1731527,516.0,505.0,503.0,22.0,81.0,83.0,506.7,505.4
1150,1555416246.2509897,512.0,519.0,458.0,22.0,81.0,98.0,507.3,505.65
1151,1555416246.3269515,508.0,500.0,476.0,19.0,81.0,98.0,507.9,504.7
1152,1555416246.3970957,494.0,511.0,513.0,24.0,81.0,98.0,507.65,504.4
1153,1555416246.47564,501.0,546.0,512.0,24.0,81.0,98.0,507.5,506.75
1154,1555416246.5608234,500.0,527.0,507.0,24.0,81.0,98.0,506.85,508.2
1155,1555416246.6444244,500.0,514.0,535.0,24.0,81.0,98.0,506.7,509.5
1156,1555416246.725861,500.0,507.0,510.0,24.0,81.0,98.0,506.15,509.75
1157,1555416246.805001,518.0,500.0,473.0,24.0,81.0,98.0,506.7,509.65
1158,1555416246.8804362,517.0,509.0,484.0,24.0,81.0,98.0,507.4,509.9
1159,1555416246.9827704,508.0,512.0,508.0,24.0,81.0,98.0,507.65,510.3
1160,1555416247.0604305,511.0,498.0,522.0,24.0,53.0,86.0,507.8,511.95
1161,1555416247.1424026,509.0,516.0,516.0,24.0,53.0,77.0,508.1,512.8
1162,1555416247.2139368,511.0,521.0,526.0,24.0,53.0,77.0,508.1,513.25
1163,1555416247.3001435,512.0,541.0,528.0,24.0,53.0,77.0,508.75,515.1
1164,1555416247.3820176,514.0,504.0,533.0,24.0,53.0,77.0,509.15,515.25
1165,1555416247.4651415,517.0,519.0,529.0,24.0,53.0,77.0,509.8,514.55
1166,1555416247.5436332,518.0,495.0,499.0,24.0,53.0,77.0,509.8,512.0
1167,1555416247.6327567,506.0,508.0,462.0,24.0,51.0,77.0,509.25,512.75
1168,1555416247.7037046,507.0,476.0,453.0,24.0,70.0,82.0,508.95,511.4
1169,1555416247.7769783,508.0,501.0,462.0,24.0,70.0,82.0,508.55,511.2
1170,1555416247.8521817,505.0,515.0,493.0,24.0,70.0,82.0,508.2,511.0
1171,1555416247.9428015,499.0,488.0,503.0,24.0,70.0,82.0,507.75,510.4
1172,1555416248.0204098,527.0,497.0,503.0,28.0,70.0,82.0,509.4,509.7
1173,1555416248.1031,513.0,504.0,524.0,28.0,65.0,82.0,510.0,507.6
1174,1555416248.1927917,506.0,473.0,535.0,28.0,68.0,82.0,510.3,504.9
1175,1555416248.266114,502.0,494.0,541.0,28.0,68.0,88.0,510.4,503.9
1176,1555416248.3639815,510.0,511.0,550.0,28.0,68.0,97.0,510.9,504.1
1177,1555416248.444038,507.0,538.0,561.0,28.0,68.0,108.0,510.35,506.0
1178,1555416248.515361,501.0,513.0,547.0,28.0,68.0,108.0,509.55,506.2
1179,1555416248.5850995,502.0,532.0,507.0,28.0,68.0,108.0,509.25,507.2
1180,1555416248.6542473,509.0,498.0,492.0,28.0,68.0,108.0,509.15,507.2
1181,1555416248.7299845,505.0,504.0,496.0,28.0,68.0,108.0,508.95,506.6
1182,1555416248.8164473,504.0,499.0,506.0,28.0,68.0,108.0,508.6,505.5
1183,1555416248.9007576,511.0,497.0,515.0,28.0,65.0,108.0,508.55,503.3
1184,1555416248.9972522,510.0,563.0,518.0,28.0,90.0,108.0,508.35,506.25
1185,1555416249.0785356,519.0,505.0,512.0,28.0,90.0,108.0,508.45,505.55
1186,1555416249.1503239,503.0,477.0,517.0,28.0,90.0,108.0,507.7,504.65
1187,1555416249.2276523,515.0,506.0,519.0,28.0,90.0,108.0,508.15,504.55
1188,1555416249.2986763,489.0,540.0,518.0,38.0,90.0,99.0,507.25,507.75
1189,1555416249.3730202,511.0,501.0,492.0,38.0,90.0,69.0,507.4,507.75
1190,1555416249.4444919,508.0,519.0,492.0,38.0,90.0,69.0,507.55,507.95
1191,1555416249.5150483,508.0,498.0,493.0,38.0,90.0,69.0,508.0,508.45
1192,1555416249.5842357,509.0,512.0,497.0,30.0,90.0,69.0,507.1,509.2
1193,1555416249.672699,511.0,511.0,505.0,30.0,90.0,69.0,507.0,509.55
1194,1555416249.765366,498.0,520.0,505.0,30.0,86.0,69.0,506.6,511.9
1195,1555416249.8341074,515.0,499.0,483.0,30.0,86.0,78.0,507.25,512.15
1196,1555416249.9118893,507.0,502.0,466.0,30.0,86.0,95.0,507.1,511.7
1197,1555416250.0134335,508.0,570.0,444.0,30.0,93.0,103.0,507.15,513.3
1198,1555416250.0985196,503.0,509.0,446.0,30.0,93.0,75.0,507.25,513.1
1199,1555416250.1747808,503.0,525.0,445.0,30.0,93.0,75.0,507.3,512.75
1200,1555416250.2562542,501.0,534.0,449.0,30.0,93.0,75.0,506.9,514.55
1201,1555416250.3392882,505.0,524.0,467.0,30.0,93.0,75.0,506.9,515.55
1202,1555416250.4228532,512.0,529.0,489.0,30.0,93.0,75.0,507.3,517.05
1203,1555416250.5072615,520.0,485.0,530.0,31.0,93.0,86.0,507.75,516.45
1204,1555416250.5809705,516.0,495.0,520.0,31.0,93.0,86.0,508.05,513.05
1205,1555416250.6641438,519.0,492.0,535.0,31.0,93.0,91.0,508.05,512.4
1206,1555416250.7531378,518.0,484.0,573.0,31.0,86.0,129.0,508.8,512.75
1207,1555416250.8492765,511.0,493.0,569.0,31.0,86.0,129.0,508.6,512.1
1208,1555416250.9246223,504.0,486.0,588.0,22.0,86.0,144.0,509.35,509.4
1209,1555416250.999251,512.0,474.0,586.0,22.0,96.0,144.0,509.4,508.05
1210,1555416251.074567,501.0,479.0,583.0,22.0,96.0,144.0,509.05,506.05
1211,1555416251.1560392,500.0,502.0,556.0,22.0,96.0,144.0,508.65,506.25
1212,1555416251.2266011,512.0,495.0,535.0,22.0,96.0,144.0,508.8,505.4
1213,1555416251.3115973,508.0,500.0,515.0,22.0,96.0,144.0,508.65,504.85
1214,1555416251.3961108,511.0,497.0,521.0,20.0,96.0,144.0,509.3,503.7
1215,1555416251.4843166,501.0,546.0,494.0,20.0,96.0,144.0,508.6,506.05
1216,1555416251.569239,513.0,524.0,500.0,20.0,96.0,144.0,508.9,507.15
1217,1555416251.649342,507.0,505.0,492.0,20.0,72.0,143.0,508.85,503.9
1218,1555416251.7231,498.0,522.0,476.0,22.0,72.0,143.0,508.6,504.55
1219,1555416251.818782,507.0,507.0,490.0,22.0,72.0,139.0,508.8,503.65
1220,1555416251.9006402,503.0,517.0,518.0,22.0,72.0,121.0,508.9,502.8
1221,1555416251.976428,509.0,518.0,515.0,22.0,72.0,112.0,509.1,502.5
1222,1555416252.0692556,528.0,498.0,508.0,30.0,72.0,112.0,509.9,500.95
1223,1555416252.1408339,518.0,494.0,520.0,30.0,72.0,112.0,509.8,501.4
1224,1555416252.2131844,512.0,516.0,527.0,30.0,72.0,112.0,509.6,502.45
1225,1555416252.2850819,517.0,504.0,551.0,30.0,72.0,112.0,509.5,503.05
1226,1555416252.3738024,515.0,506.0,545.0,30.0,72.0,112.0,509.35,504.15
1227,1555416252.457098,516.0,519.0,529.0,30.0,72.0,112.0,509.6,505.45
1228,1555416252.53749,503.0,494.0,528.0,30.0,72.0,110.0,509.55,505.85
1229,1555416252.6124728,507.0,551.0,502.0,30.0,72.0,107.0,509.3,509.7
1230,1555416252.7042456,520.0,491.0,498.0,30.0,60.0,80.0,510.25,510.3
1231,1555416252.7850862,507.0,493.0,484.0,30.0,60.0,75.0,510.6,509.85
1232,1555416252.8648627,512.0,502.0,473.0,30.0,60.0,78.0,510.6,510.2
1233,1555416252.9400911,510.0,492.0,460.0,30.0,60.0,91.0,510.7,509.8
1234,1555416253.0151486,504.0,532.0,469.0,30.0,60.0,91.0,510.35,511.55
1235,1555416253.0888748,509.0,520.0,475.0,30.0,60.0,91.0,510.75,510.25
1236,1555416253.1601944,504.0,502.0,483.0,30.0,60.0,91.0,510.3,509.15
1237,1555416253.248096,507.0,563.0,494.0,30.0,72.0,91.0,510.3,512.05
1238,1555416253.3240702,498.0,534.0,494.0,30.0,72.0,91.0,510.3,512.65
1239,1555416253.4037669,519.0,514.0,498.0,30.0,72.0,91.0,510.9,513.0
1240,1555416253.4733427,517.0,501.0,502.0,30.0,72.0,91.0,511.6,512.2
1241,1555416253.5506566,511.0,502.0,497.0,30.0,72.0,91.0,511.7,511.4
1242,1555416253.6373138,512.0,499.0,502.0,22.0,72.0,91.0,510.9,511.45
1243,1555416253.7163308,514.0,510.0,498.0,22.0,72.0,91.0,510.7,512.25
1244,1555416253.8054955,506.0,493.0,493.0,22.0,72.0,91.0,510.4,511.1
1245,1555416253.8956146,504.0,489.0,500.0,22.0,74.0,85.0,509.75,510.35
1246,1555416253.9785788,508.0,529.0,502.0,22.0,74.0,69.0,509.4,511.5
1247,1555416254.0551817,500.0,491.0,518.0,22.0,74.0,68.0,508.6,510.1
1248,1555416254.124768,509.0,512.0,566.0,22.0,74.0,106.0,508.9,511.0
1249,1555416254.1965513,506.0,510.0,553.0,22.0,74.0,106.0,508.85,508.95
1250,1555416254.2673266,519.0,521.0,536.0,21.0,74.0,106.0,508.8,510.45
1251,1555416254.3499491,501.0,566.0,529.0,21.0,77.0,106.0,508.5,514.1
1252,1555416254.4403734,518.0,526.0,512.0,21.0,77.0,106.0,508.8,515.3
1253,1555416254.532418,521.0,519.0,513.0,23.0,77.0,97.0,509.35,516.65
1254,1555416254.605032,514.0,523.0,508.0,23.0,77.0,91.0,509.85,516.2
1255,1555416254.677772,531.0,514.0,477.0,33.0,77.0,89.0,510.95,515.9
1256,1555416254.7727218,524.0,516.0,467.0,33.0,77.0,99.0,511.95,516.6
1257,1555416254.8520553,495.0,502.0,454.0,36.0,77.0,112.0,511.35,513.55
1258,1555416254.9382255,489.0,477.0,472.0,42.0,89.0,112.0,510.9,510.7
1259,1555416255.0200799,503.0,476.0,493.0,42.0,90.0,112.0,510.1,508.8
1260,1555416255.102051,505.0,485.0,506.0,42.0,90.0,112.0,509.5,508.0
1261,1555416255.1767917,521.0,480.0,542.0,42.0,90.0,112.0,510.0,506.9
1262,1555416255.2600145,516.0,485.0,498.0,42.0,90.0,112.0,510.2,506.2
1263,1555416255.347572,508.0,478.0,458.0,42.0,90.0,112.0,509.9,504.6
1264,1555416255.4213512,510.0,506.0,428.0,42.0,90.0,138.0,510.1,505.25
1265,1555416255.492696,496.0,520.0,417.0,42.0,90.0,149.0,509.7,506.8
1266,1555416255.5677018,485.0,582.0,428.0,46.0,106.0,149.0,508.55,509.45
1267,1555416255.65424,500.0,543.0,489.0,46.0,106.0,149.0,508.55,512.05
1268,1555416255.732718,501.0,505.0,577.0,46.0,106.0,160.0,508.15,511.7
1269,1555416255.8497334,505.0,495.0,599.0,46.0,106.0,182.0,508.1,510.95
1270,1555416255.931755,508.0,455.0,589.0,46.0,127.0,182.0,507.55,507.65
1271,1555416256.011248,518.0,458.0,583.0,46.0,127.0,182.0,508.4,502.25
1272,1555416256.094813,505.0,504.0,550.0,46.0,127.0,182.0,507.75,501.15
1273,1555416256.1720273,489.0,488.0,520.0,46.0,127.0,182.0,506.15,499.6
1274,1555416256.2564552,502.0,524.0,453.0,46.0,127.0,182.0,505.55,499.65
1275,1555416256.3330302,491.0,541.0,439.0,39.0,127.0,182.0,503.55,501.0
1276,1555416256.4279678,505.0,509.0,517.0,36.0,127.0,182.0,502.6,500.65
1277,1555416256.519215,532.0,545.0,517.0,47.0,127.0,182.0,504.45,502.8
1278,1555416256.5936534,536.0,482.0,514.0,51.0,127.0,182.0,506.8,503.05
1279,1555416256.6766832,535.0,444.0,512.0,51.0,138.0,182.0,508.4,501.45
1280,1555416256.7540817,528.0,460.0,538.0,51.0,138.0,182.0,509.55,500.2
1281,1555416256.83147,506.0,480.0,545.0,51.0,138.0,182.0,508.8,500.2
1282,1555416256.9077306,486.0,489.0,556.0,51.0,138.0,182.0,507.3,500.4
1283,1555416257.0077188,489.0,512.0,533.0,51.0,138.0,182.0,506.35,502.1
1284,1555416257.0858545,483.0,530.0,550.0,53.0,138.0,182.0,505.0,503.3
1285,1555416257.1658196,498.0,546.0,529.0,53.0,138.0,171.0,505.1,504.6
1286,1555416257.2447186,509.0,510.0,490.0,53.0,102.0,160.0,506.3,501.0
1287,1555416257.3287027,514.0,496.0,500.0,53.0,102.0,160.0,507.0,498.65
1288,1555416257.4080927,535.0,521.0,486.0,53.0,102.0,160.0,508.7,499.45
1289,1555416257.4875374,533.0,474.0,476.0,53.0,102.0,150.0,510.1,498.4
1290,1555416257.5797362,517.0,501.0,559.0,53.0,102.0,144.0,510.55,500.7
1291,1555416257.6648889,517.0,481.0,541.0,53.0,102.0,120.0,510.5,501.85
1292,1555416257.733468,496.0,501.0,444.0,53.0,102.0,120.0,510.05,501.7
1293,1555416257.8031144,501.0,525.0,462.0,53.0,102.0,120.0,510.65,503.55
1294,1555416257.874765,500.0,545.0,489.0,53.0,102.0,120.0,510.55,504.6
1295,1555416257.951019,503.0,507.0,500.0,53.0,102.0,115.0,511.15,502.9
1296,1555416258.047338,521.0,484.0,538.0,53.0,102.0,115.0,511.95,501.65
1297,1555416258.1302671,522.0,490.0,542.0,53.0,102.0,115.0,511.45,498.9
1298,1555416258.2167106,512.0,477.0,551.0,52.0,102.0,115.0,510.25,498.65
1299,1555416258.2971416,512.0,477.0,561.0,52.0,86.0,117.0,509.1,500.3
1300,1555416258.3785324,509.0,496.0,522.0,52.0,72.0,117.0,508.15,502.1
1301,1555416258.458097,509.0,510.0,476.0,52.0,72.0,117.0,508.3,503.6
1302,1555416258.5318162,507.0,510.0,463.0,52.0,72.0,117.0,509.35,504.65
1303,1555416258.6187787,515.0,538.0,490.0,52.0,72.0,117.0,510.65,505.95
1304,1555416258.693483,502.0,567.0,530.0,39.0,93.0,117.0,511.6,507.8
1305,1555416258.7797854,503.0,531.0,538.0,39.0,93.0,117.0,511.85,507.05
1306,1555416258.8563037,522.0,533.0,520.0,39.0,93.0,117.0,512.5,508.2
1307,1555416258.9614263,517.0,521.0,529.0,39.0,93.0,117.0,512.65,509.45
1308,1555416259.0470524,510.0,482.0,536.0,37.0,93.0,117.0,511.4,507.5
1309,1555416259.1263127,516.0,470.0,484.0,26.0,97.0,117.0,510.55,507.3
1310,1555416259.2004457,513.0,457.0,447.0,26.0,110.0,117.0,510.35,505.1
1311,1555416259.2733054,500.0,470.0,466.0,26.0,110.0,117.0,509.5,504.55
1312,1555416259.344305,511.0,463.0,505.0,22.0,110.0,114.0,510.25,502.65
1313,1555416259.4281087,504.0,513.0,543.0,22.0,110.0,114.0,510.4,502.05
1314,1555416259.5152133,483.0,525.0,513.0,39.0,110.0,114.0,509.55,501.05
1315,1555416259.618145,487.0,528.0,496.0,39.0,110.0,114.0,508.75,502.1
1316,1555416259.709351,512.0,503.0,518.0,39.0,110.0,114.0,508.3,503.05
1317,1555416259.7932522,517.0,482.0,540.0,39.0,110.0,114.0,508.05,502.65
1318,1555416259.8759058,507.0,502.0,534.0,39.0,110.0,114.0,507.8,503.9
1319,1555416259.9534967,510.0,511.0,515.0,39.0,110.0,96.0,507.7,505.6
1320,1555416260.036463,509.0,495.0,525.0,39.0,110.0,96.0,507.7,505.55
1321,1555416260.1140523,517.0,516.0,498.0,39.0,110.0,96.0,508.1,505.85
1322,1555416260.2035038,500.0,559.0,494.0,39.0,110.0,96.0,507.75,508.3
1323,1555416260.2991478,513.0,517.0,522.0,39.0,110.0,96.0,507.65,507.25
1324,1555416260.380395,509.0,514.0,525.0,39.0,102.0,96.0,508.0,504.6
1325,1555416260.45705,471.0,473.0,531.0,51.0,102.0,96.0,506.4,501.7
1326,1555416260.5289845,509.0,519.0,501.0,46.0,102.0,96.0,505.75,501.0
1327,1555416260.6009865,509.0,499.0,517.0,46.0,102.0,96.0,505.35,499.9
1328,1555416260.6805174,505.0,499.0,518.0,46.0,102.0,96.0,505.1,500.75
1329,1555416260.7601132,507.0,498.0,523.0,46.0,102.0,96.0,504.65,502.15
1330,1555416260.8386006,490.0,482.0,513.0,46.0,96.0,77.0,503.5,503.4
1331,1555416260.9189813,504.0,498.0,511.0,46.0,96.0,49.0,503.7,504.8
1332,1555416261.006366,498.0,498.0,473.0,46.0,86.0,70.0,503.05,506.55
1333,1555416261.08463,494.0,493.0,463.0,46.0,86.0,77.0,502.55,505.55
1334,1555416261.1697662,506.0,512.0,496.0,46.0,86.0,77.0,503.7,504.9
1335,1555416261.2552962,508.0,506.0,509.0,46.0,86.0,77.0,504.75,503.8
1336,1555416261.3327694,516.0,541.0,507.0,46.0,86.0,77.0,504.95,505.7
1337,1555416261.4058468,519.0,497.0,500.0,48.0,86.0,71.0,505.05,506.45
1338,1555416261.488191,515.0,510.0,492.0,48.0,86.0,68.0,505.45,506.85
1339,1555416261.567399,504.0,501.0,501.0,48.0,86.0,68.0,505.15,506.35
1340,1555416261.6664484,509.0,540.0,512.0,48.0,86.0,68.0,505.15,508.6
1341,1555416261.7592,515.0,519.0,512.0,48.0,86.0,68.0,505.05,508.75
1342,1555416261.836315,513.0,506.0,513.0,48.0,68.0,68.0,505.7,506.1
1343,1555416261.928613,518.0,519.0,513.0,48.0,68.0,68.0,505.95,506.2
1344,1555416262.012698,510.0,523.0,518.0,48.0,68.0,68.0,506.0,506.65
1345,1555416262.096138,512.0,473.0,519.0,29.0,68.0,60.0,508.05,506.65
1346,1555416262.169324,512.0,487.0,516.0,29.0,68.0,60.0,508.2,505.05
1347,1555416262.2606828,509.0,486.0,497.0,29.0,68.0,60.0,508.2,504.4
1348,1555416262.3434842,506.0,512.0,480.0,29.0,68.0,60.0,508.25,505.05
1349,1555416262.4270983,508.0,506.0,466.0,29.0,68.0,56.0,508.3,505.45
1350,1555416262.509372,507.0,516.0,466.0,25.0,68.0,56.0,509.15,507.15
1351,1555416262.6095393,503.0,505.0,494.0,25.0,68.0,56.0,509.1,507.5
1352,1555416262.693482,508.0,483.0,497.0,25.0,68.0,56.0,509.6,506.75
1353,1555416262.7727025,520.0,514.0,504.0,17.0,68.0,53.0,510.9,507.8
1354,1555416262.8484418,515.0,489.0,502.0,17.0,68.0,53.0,511.35,506.65
1355,1555416262.9241202,522.0,517.0,499.0,19.0,68.0,53.0,512.05,507.2
1356,1555416263.005715,517.0,501.0,502.0,19.0,67.0,53.0,512.1,505.2
1357,1555416263.0887604,526.0,507.0,504.0,23.0,67.0,53.0,512.45,505.7
1358,1555416263.1701133,517.0,504.0,501.0,23.0,67.0,53.0,512.55,505.4
1359,1555416263.2680154,498.0,514.0,511.0,28.0,67.0,53.0,512.25,506.05
1360,1555416263.3509138,498.0,522.0,512.0,28.0,50.0,53.0,511.7,505.15
1361,1555416263.4245696,511.0,516.0,518.0,28.0,50.0,53.0,511.5,505.0
1362,1555416263.5184536,518.0,522.0,524.0,28.0,50.0,58.0,511.75,505.8
1363,1555416263.6052,503.0,492.0,511.0,28.0,50.0,58.0,511.0,504.45
1364,1555416263.685246,505.0,496.0,511.0,28.0,49.0,58.0,510.75,503.1
1365,1555416263.7685173,508.0,480.0,514.0,28.0,42.0,58.0,510.55,503.45
1366,1555416263.8497972,504.0,481.0,502.0,28.0,42.0,58.0,510.15,503.15
1367,1555416263.9409673,500.0,544.0,497.0,28.0,64.0,58.0,509.7,506.05
1368,1555416264.0292244,507.0,508.0,498.0,28.0,64.0,58.0,509.75,505.85
1369,1555416264.1363728,505.0,533.0,502.0,28.0,64.0,58.0,509.6,507.2
1370,1555416264.2210536,510.0,535.0,497.0,28.0,64.0,30.0,509.75,508.15
1371,1555416264.3118665,507.0,512.0,491.0,28.0,64.0,33.0,509.95,508.5
1372,1555416264.3879383,515.0,530.0,505.0,28.0,64.0,33.0,510.3,510.85
1373,1555416264.475802,510.0,521.0,511.0,28.0,64.0,33.0,509.8,511.2
1374,1555416264.5566173,504.0,491.0,508.0,28.0,64.0,33.0,509.25,511.3
1375,1555416264.6302738,512.0,505.0,501.0,28.0,64.0,33.0,508.75,510.7
1376,1555416264.7285874,514.0,512.0,492.0,28.0,64.0,33.0,508.6,511.25
1377,1555416264.815127,506.0,504.0,505.0,20.0,64.0,33.0,507.6,511.1
1378,1555416264.9057064,500.0,506.0,515.0,20.0,64.0,33.0,506.75,511.2
1379,1555416264.9825609,501.0,531.0,523.0,20.0,64.0,33.0,506.9,512.05
1380,1555416265.0722785,504.0,534.0,515.0,18.0,64.0,33.0,507.2,512.65
1381,1555416265.1535923,506.0,500.0,495.0,18.0,64.0,33.0,506.95,511.85
1382,1555416265.2391999,507.0,502.0,494.0,15.0,64.0,32.0,506.4,510.85
1383,1555416265.315771,511.0,490.0,494.0,15.0,64.0,32.0,506.8,510.75
1384,1555416265.394275,497.0,502.0,498.0,18.0,64.0,32.0,506.4,511.05
1385,1555416265.4713907,515.0,491.0,478.0,18.0,63.0,45.0,506.75,511.6
1386,1555416265.5957253,500.0,490.0,484.0,18.0,54.0,45.0,506.55,512.05
1387,1555416265.674445,511.0,531.0,498.0,18.0,45.0,45.0,507.1,511.4
1388,1555416265.7620275,504.0,511.0,503.0,18.0,45.0,45.0,506.95,511.55
1389,1555416265.8335369,504.0,507.0,511.0,18.0,45.0,45.0,506.9,510.25
1390,1555416265.9289293,496.0,489.0,507.0,19.0,45.0,45.0,506.2,507.95
1391,1555416266.0070212,523.0,506.0,504.0,27.0,45.0,45.0,507.0,507.65
1392,1555416266.0930738,522.0,516.0,506.0,27.0,45.0,45.0,507.35,506.95
1393,1555416266.1637895,509.0,546.0,503.0,27.0,57.0,45.0,507.3,508.2
1394,1555416266.2353728,518.0,513.0,492.0,27.0,57.0,45.0,508.0,509.3
1395,1555416266.3084297,502.0,511.0,495.0,27.0,57.0,45.0,507.5,509.6
1396,1555416266.3783562,504.0,511.0,513.0,27.0,57.0,45.0,507.0,509.55
1397,1555416266.4816954,506.0,533.0,511.0,27.0,57.0,45.0,507.0,511.0
1398,1555416266.5637207,498.0,476.0,500.0,27.0,70.0,45.0,506.9,509.5
1399,1555416266.6531656,496.0,494.0,493.0,27.0,70.0,37.0,506.65,507.65
1400,1555416266.7392657,510.0,526.0,502.0,27.0,70.0,35.0,506.95,507.25
1401,1555416266.8182337,517.0,501.0,505.0,27.0,70.0,35.0,507.5,507.3
1402,1555416266.8964145,510.0,472.0,501.0,27.0,74.0,35.0,507.65,505.8
1403,1555416266.9791813,515.0,499.0,503.0,27.0,74.0,35.0,507.85,506.25
1404,1555416267.086078,496.0,506.0,519.0,27.0,74.0,41.0,507.8,506.45
1405,1555416267.163769,501.0,526.0,521.0,27.0,74.0,37.0,507.1,508.2
1406,1555416267.237833,514.0,534.0,517.0,27.0,74.0,29.0,507.8,510.4
1407,1555416267.323548,513.0,511.0,506.0,27.0,74.0,29.0,507.9,509.4
1408,1555416267.3996785,522.0,486.0,506.0,27.0,74.0,29.0,508.8,508.15
1409,1555416267.4781673,521.0,531.0,511.0,27.0,74.0,29.0,509.65,509.35
1410,1555416267.5502064,513.0,535.0,512.0,27.0,74.0,29.0,510.5,511.65
1411,1555416267.6271112,520.0,506.0,510.0,26.0,74.0,29.0,510.35,511.65
1412,1555416267.7238848,506.0,506.0,517.0,26.0,74.0,29.0,509.55,511.15
1413,1555416267.8252983,508.0,510.0,512.0,26.0,63.0,29.0,509.5,509.35
1414,1555416267.9016807,506.0,514.0,513.0,26.0,63.0,28.0,508.9,509.4
1415,1555416267.9769747,511.0,531.0,513.0,26.0,63.0,28.0,509.35,510.4
1416,1555416268.0571012,494.0,517.0,506.0,28.0,63.0,28.0,508.85,510.7
1417,1555416268.1300888,506.0,481.0,509.0,28.0,63.0,28.0,508.85,508.1
1418,1555416268.2015293,514.0,494.0,496.0,28.0,63.0,28.0,509.65,509.0
1419,1555416268.2815218,513.0,500.0,511.0,28.0,63.0,25.0,510.5,509.3
1420,1555416268.386425,511.0,482.0,506.0,28.0,63.0,25.0,510.55,507.1
1421,1555416268.4700134,517.0,509.0,495.0,28.0,63.0,26.0,510.55,507.5
1422,1555416268.5522983,513.0,507.0,486.0,28.0,54.0,35.0,510.7,509.25
1423,1555416268.6240494,507.0,502.0,510.0,28.0,54.0,35.0,510.3,509.4
1424,1555416268.7085865,507.0,499.0,507.0,28.0,54.0,35.0,510.85,509.05
1425,1555416268.7824504,504.0,517.0,512.0,28.0,54.0,31.0,511.0,508.6
1426,1555416268.8759825,494.0,518.0,526.0,28.0,54.0,40.0,510.0,507.8
1427,1555416268.9811428,515.0,481.0,520.0,28.0,54.0,40.0,510.1,506.3
1428,1555416269.0505488,506.0,501.0,530.0,27.0,54.0,44.0,509.3,507.05
1429,1555416269.1250594,518.0,495.0,517.0,26.0,54.0,44.0,509.15,505.25
1430,1555416269.2188623,511.0,493.0,520.0,26.0,50.0,44.0,509.05,503.15
1431,1555416269.2996643,509.0,504.0,534.0,24.0,50.0,48.0,508.5,503.05
1432,1555416269.3828034,508.0,516.0,534.0,24.0,50.0,48.0,508.6,503.55
1433,1555416269.4643195,514.0,509.0,549.0,24.0,50.0,63.0,508.9,503.5
1434,1555416269.561179,513.0,500.0,531.0,24.0,50.0,63.0,509.25,502.8
1435,1555416269.6371653,508.0,507.0,531.0,24.0,37.0,63.0,509.1,501.6
1436,1555416269.728168,504.0,519.0,530.0,24.0,38.0,63.0,509.6,501.7
1437,1555416269.8007665,511.0,468.0,519.0,24.0,51.0,63.0,509.85,501.05
1438,1555416269.8803554,508.0,516.0,510.0,24.0,51.0,63.0,509.55,502.15
1439,1555416269.9536252,511.0,522.0,500.0,24.0,54.0,63.0,509.45,503.25
1440,1555416270.0244207,523.0,513.0,513.0,29.0,54.0,63.0,510.05,504.8
1441,1555416270.0955508,511.0,495.0,518.0,29.0,54.0,63.0,509.75,504.1
1442,1555416270.181511,488.0,521.0,507.0,35.0,54.0,49.0,508.5,504.8
1443,1555416270.2748919,488.0,521.0,507.0,35.0,54.0,49.0,507.55,505.75
1444,1555416270.3510518,517.0,486.0,518.0,35.0,54.0,49.0,508.05,505.1
1445,1555416270.432908,509.0,504.0,520.0,35.0,54.0,49.0,508.3,504.45
1446,1555416270.5252688,512.0,495.0,526.0,35.0,54.0,49.0,509.2,503.3
1447,1555416270.6036897,512.0,495.0,526.0,35.0,54.0,49.0,509.05,504.0
1448,1555416270.6932943,498.0,543.0,443.0,35.0,75.0,106.0,508.65,506.1
1449,1555416270.7725391,491.0,515.0,471.0,35.0,75.0,106.0,507.3,507.1
1450,1555416270.8542857,515.0,522.0,486.0,35.0,75.0,106.0,507.5,508.55
1451,1555416270.9396708,517.0,486.0,518.0,35.0,75.0,106.0,507.9,507.65
1452,1555416271.035902,509.0,504.0,520.0,35.0,75.0,106.0,507.95,507.05
1453,1555416271.1348364,516.0,467.0,528.0,35.0,76.0,88.0,508.05,504.95
1454,1555416271.2137876,512.0,495.0,526.0,35.0,76.0,88.0,508.0,504.7
1455,1555416271.2990556,498.0,543.0,443.0,35.0,76.0,87.0,507.5,506.5
1456,1555416271.3830183,491.0,515.0,471.0,35.0,76.0,85.0,506.85,506.3
1457,1555416271.4748223,515.0,522.0,486.0,35.0,76.0,85.0,507.05,509.0
1458,1555416271.563444,517.0,486.0,518.0,35.0,76.0,85.0,507.5,507.5
1459,1555416271.6403222,509.0,504.0,520.0,35.0,76.0,85.0,507.4,506.6
1460,1555416271.7418556,512.0,495.0,526.0,29.0,76.0,85.0,506.85,505.7
1461,1555416271.829653,512.0,523.0,518.0,29.0,76.0,85.0,506.9,507.1
1462,1555416271.927463,498.0,489.0,525.0,29.0,76.0,85.0,507.4,505.5
1463,1555416272.0165138,511.0,489.0,538.0,26.0,76.0,95.0,508.55,503.9
1464,1555416272.0852592,506.0,483.0,554.0,26.0,76.0,111.0,508.0,503.75
1465,1555416272.1555738,507.0,476.0,536.0,26.0,76.0,111.0,507.9,502.35
1466,1555416272.2291934,508.0,508.0,534.0,26.0,76.0,111.0,507.7,503.0
1467,1555416272.29901,508.0,491.0,526.0,26.0,76.0,111.0,507.5,502.8
1468,1555416272.3764007,508.0,491.0,526.0,26.0,76.0,111.0,508.0,500.2
1469,1555416272.4748256,510.0,524.0,523.0,26.0,76.0,111.0,508.95,500.65
1470,1555416272.5518658,522.0,527.0,539.0,31.0,76.0,111.0,509.3,500.9
1471,1555416272.6337807,514.0,546.0,546.0,31.0,79.0,111.0,509.15,503.9
1472,1555416272.7326589,513.0,512.0,549.0,31.0,79.0,111.0,509.35,504.3
1473,1555416272.8171241,514.0,518.0,538.0,31.0,70.0,111.0,509.25,506.85
1474,1555416272.9027035,514.0,504.0,543.0,31.0,70.0,111.0,509.35,507.3
1475,1555416272.982265,513.0,497.0,525.0,31.0,70.0,83.0,510.1,505.0
1476,1555416273.0643399,504.0,504.0,515.0,24.0,70.0,68.0,510.75,504.45
1477,1555416273.1375258,506.0,489.0,508.0,24.0,70.0,46.0,510.3,502.8
1478,1555416273.2268908,515.0,491.0,484.0,24.0,70.0,70.0,510.2,503.05
1479,1555416273.3055928,516.0,497.0,459.0,24.0,70.0,95.0,510.55,502.7
1480,1555416273.3935053,492.0,502.0,438.0,30.0,70.0,116.0,509.55,503.05
1481,1555416273.4786708,512.0,514.0,430.0,30.0,70.0,124.0,509.55,502.6
1482,1555416273.5592787,507.0,518.0,427.0,30.0,70.0,127.0,510.0,504.05
1483,1555416273.6445875,512.0,527.0,402.0,30.0,70.0,152.0,510.05,505.95
1484,1555416273.7377803,510.0,517.0,395.0,30.0,70.0,154.0,510.25,507.65
1485,1555416273.8245015,508.0,529.0,415.0,30.0,57.0,154.0,510.3,510.3
1486,1555416273.9012725,515.0,506.0,450.0,30.0,57.0,154.0,510.65,510.2
1487,1555416273.9831746,509.0,513.0,479.0,30.0,57.0,154.0,510.7,511.3
1488,1555416274.052827,504.0,494.0,569.0,30.0,57.0,174.0,510.5,511.45
1489,1555416274.1500134,509.0,503.0,604.0,30.0,57.0,209.0,510.45,510.4
1490,1555416274.226891,501.0,524.0,632.0,24.0,57.0,237.0,509.4,510.25
1491,1555416274.3174675,511.0,490.0,609.0,24.0,40.0,237.0,509.25,507.45
1492,1555416274.3920374,506.0,474.0,585.0,24.0,55.0,237.0,508.9,505.55
1493,1555416274.486771,511.0,502.0,582.0,24.0,55.0,237.0,508.75,504.75
1494,1555416274.567044,515.0,528.0,548.0,24.0,55.0,237.0,508.8,505.95
1495,1555416274.646261,515.0,479.0,533.0,24.0,55.0,237.0,508.9,505.05
1496,1555416274.739715,497.0,506.0,541.0,24.0,55.0,237.0,508.55,505.15
1497,1555416274.8367257,515.0,489.0,540.0,24.0,55.0,237.0,509.0,505.15
1498,1555416274.9096277,514.0,490.0,529.0,24.0,55.0,237.0,508.95,505.1
1499,1555416274.9846487,508.0,496.0,527.0,23.0,55.0,237.0,508.55,505.05
1500,1555416275.0595598,493.0,515.0,525.0,22.0,55.0,237.0,508.6,505.7
1501,1555416275.1340065,516.0,526.0,522.0,23.0,55.0,237.0,508.8,506.3
1502,1555416275.203705,511.0,502.0,524.0,23.0,55.0,237.0,509.0,505.5
1503,1555416275.2767365,513.0,511.0,524.0,23.0,55.0,237.0,509.05,504.7
1504,1555416275.3504312,515.0,512.0,524.0,23.0,55.0,217.0,509.3,504.45
1505,1555416275.431997,514.0,491.0,521.0,23.0,54.0,182.0,509.6,502.55
1506,1555416275.505413,512.0,503.0,520.0,23.0,54.0,153.0,509.45,502.4
1507,1555416275.6016057,499.0,531.0,520.0,23.0,57.0,112.0,508.95,503.3
1508,1555416275.671371,521.0,526.0,517.0,28.0,57.0,115.0,509.8,504.9
1509,1555416275.7527177,508.0,502.0,514.0,28.0,57.0,118.0,509.75,504.85
1510,1555416275.8257713,509.0,511.0,520.0,28.0,57.0,95.0,510.15,504.2
1511,1555416275.9040787,504.0,513.0,528.0,28.0,57.0,71.0,509.8,505.35
1512,1555416275.980158,511.0,502.0,522.0,28.0,52.0,68.0,510.05,506.75
1513,1555416276.0733838,511.0,492.0,519.0,28.0,52.0,34.0,510.05,506.25
1514,1555416276.157243,498.0,486.0,515.0,28.0,52.0,27.0,509.2,504.15
1515,1555416276.2384126,508.0,502.0,508.0,28.0,45.0,33.0,508.85,505.3
1516,1555416276.306757,507.0,517.0,511.0,28.0,45.0,32.0,509.35,505.85
1517,1555416276.3764331,509.0,501.0,521.0,28.0,45.0,21.0,509.05,506.45
1518,1555416276.4547663,509.0,490.0,532.0,28.0,45.0,24.0,508.8,506.45
1519,1555416276.5446553,509.0,514.0,536.0,28.0,45.0,28.0,508.85,507.35
1520,1555416276.621585,509.0,492.0,542.0,23.0,45.0,34.0,509.65,506.2
1521,1555416276.69986,484.0,508.0,537.0,37.0,45.0,34.0,508.05,505.3
1522,1555416276.7761018,516.0,504.0,518.0,37.0,45.0,34.0,508.3,505.4
1523,1555416276.8472924,514.0,509.0,518.0,37.0,45.0,34.0,508.35,505.3
1524,1555416276.9367268,521.0,496.0,516.0,37.0,45.0,34.0,508.65,504.5
1525,1555416277.0151236,510.0,497.0,528.0,37.0,45.0,34.0,508.45,504.8
1526,1555416277.1009033,500.0,513.0,527.0,37.0,45.0,34.0,507.85,505.3
1527,1555416277.1870604,511.0,497.0,539.0,37.0,40.0,34.0,508.45,503.6
1528,1555416277.2755852,511.0,568.0,536.0,37.0,82.0,34.0,507.95,505.7
1529,1555416277.3609097,505.0,504.0,529.0,37.0,82.0,34.0,507.8,505.8
1530,1555416277.4627576,510.0,507.0,509.0,37.0,82.0,34.0,507.85,505.6
1531,1555416277.5530107,516.0,534.0,505.0,37.0,82.0,37.0,508.45,506.65
1532,1555416277.6343,516.0,480.0,511.0,37.0,88.0,37.0,508.7,505.55
1533,1555416277.708717,508.0,509.0,518.0,37.0,88.0,37.0,508.55,506.4
1534,1555416277.7837532,507.0,547.0,528.0,37.0,88.0,37.0,509.0,509.45
1535,1555416277.867533,510.0,491.0,524.0,37.0,88.0,37.0,509.1,508.9
1536,1555416277.9644573,506.0,507.0,519.0,37.0,88.0,37.0,509.05,508.4
1537,1555416278.045787,505.0,509.0,510.0,37.0,88.0,37.0,508.85,508.8
1538,1555416278.1197417,507.0,534.0,508.0,37.0,88.0,37.0,508.75,511.0
1539,1555416278.224115,512.0,511.0,508.0,37.0,88.0,37.0,508.9,510.85
1540,1555416278.306466,515.0,519.0,513.0,37.0,88.0,34.0,509.2,512.2
1541,1555416278.3803146,509.0,497.0,521.0,21.0,88.0,34.0,510.45,511.65
1542,1555416278.4528956,515.0,508.0,527.0,21.0,88.0,34.0,510.4,511.85
1543,1555416278.522654,507.0,493.0,527.0,21.0,88.0,34.0,510.05,511.05
1544,1555416278.6128364,507.0,492.0,513.0,16.0,88.0,34.0,509.35,510.85
1545,1555416278.693351,503.0,514.0,502.0,16.0,88.0,37.0,509.0,511.7
1546,1555416278.7738492,512.0,495.0,492.0,13.0,88.0,47.0,509.6,510.8
1547,1555416278.8504446,513.0,525.0,497.0,13.0,88.0,44.0,509.7,512.2
1548,1555416278.9418428,517.0,501.0,507.0,14.0,67.0,37.0,510.0,508.85
1549,1555416279.030277,513.0,493.0,512.0,14.0,67.0,36.0,510.4,508.3
1550,1555416279.1448028,506.0,474.0,518.0,14.0,73.0,36.0,510.2,506.65
1551,1555416279.2364826,508.0,497.0,518.0,14.0,73.0,36.0,509.8,504.8
1552,1555416279.3252244,515.0,513.0,504.0,14.0,73.0,36.0,509.75,506.45
1553,1555416279.4098873,505.0,494.0,504.0,14.0,73.0,36.0,509.6,505.7
1554,1555416279.4924693,512.0,505.0,496.0,14.0,60.0,35.0,509.85,503.6
1555,1555416279.566746,506.0,513.0,498.0,14.0,60.0,35.0,509.65,504.7
1556,1555416279.6394072,504.0,512.0,503.0,14.0,60.0,35.0,509.55,504.95
1557,1555416279.711545,512.0,511.0,516.0,14.0,60.0,35.0,509.9,505.05
1558,1555416279.7812312,517.0,486.0,512.0,14.0,51.0,35.0,510.4,502.65
1559,1555416279.851667,520.0,496.0,513.0,17.0,51.0,35.0,510.8,501.9
1560,1555416279.9229386,513.0,514.0,509.0,17.0,51.0,35.0,510.7,501.65
1561,1555416280.0065453,499.0,490.0,505.0,21.0,51.0,35.0,510.2,501.3
1562,1555416280.0841537,508.0,504.0,502.0,21.0,51.0,35.0,509.85,501.1
1563,1555416280.163706,501.0,515.0,504.0,21.0,51.0,26.0,509.55,502.2
1564,1555416280.2398226,511.0,529.0,510.0,21.0,55.0,26.0,509.75,504.05
1565,1555416280.31523,511.0,537.0,512.0,21.0,63.0,26.0,510.15,505.2
1566,1555416280.3967192,509.0,505.0,514.0,21.0,63.0,22.0,510.0,505.7
1567,1555416280.4791389,514.0,507.0,509.0,21.0,63.0,22.0,510.05,504.8
