,emg_prev_0_0,emg_prev_0_1,emg_prev_0_2,emg_prev_0_3,emg_prev_0_4,emg_prev_0_5,emg_prev_0_6,emg_prev_0_7,emg_prev_0_8,emg_prev_0_9,emg_prev_0_10,emg_prev_0_11,emg_prev_0_12,emg_prev_0_13,emg_prev_0_14,emg_prev_0_15,emg_prev_0_16,emg_prev_0_17,emg_prev_0_18,emg_prev_0_19,emg_prev_1_0,emg_prev_1_1,emg_prev_1_2,emg_prev_1_3,emg_prev_1_4,emg_prev_1_5,emg_prev_1_6,emg_prev_1_7,emg_prev_1_8,emg_prev_1_9,emg_prev_1_10,emg_prev_1_11,emg_prev_1_12,emg_prev_1_13,emg_prev_1_14,emg_prev_1_15,emg_prev_1_16,emg_prev_1_17,emg_prev_1_18,emg_prev_1_19,emg_prev_2_0,emg_prev_2_1,emg_prev_2_2,emg_prev_2_3,emg_prev_2_4,emg_prev_2_5,emg_prev_2_6,emg_prev_2_7,emg_prev_2_8,emg_prev_2_9,emg_prev_2_10,emg_prev_2_11,emg_prev_2_12,emg_prev_2_13,emg_prev_2_14,emg_prev_2_15,emg_prev_2_16,emg_prev_2_17,emg_prev_2_18,emg_prev_2_19,emg_med_0,emg_med_1,emg_med_2,emg_min_0,emg_min_1,emg_min_2,emg_0,emg_1,emg_2,emg_max_0,emg_max_1,emg_max_2,emg_ampl_0,emg_ampl_1,emg_ampl_2
0,511.0,511.0,511.0,511.0,511.0,511.0,511.0,511.0,511.0,511.0,511.0,511.0,511.0,511.0,510.0,510.0,510.0,510.0,510.0,510.0,1022.0,1022.0,1022.0,1022.0,1022.0,1022.0,1022.0,1022.0,1022.0,1022.0,1022.0,1022.0,1022.0,1022.0,1022.0,1022.0,1022.0,1022.0,1022.0,1022.0,546.0,546.0,546.0,546.0,546.0,546.0,546.0,546.0,546.0,546.0,546.0,546.0,546.0,546.0,613.0,613.0,613.0,613.0,613.0,613.0,510.8666666666667,1022.0,554.9333333333333,510.0,1022.0,546.0,510.0,1022.0,613.0,511.0,1022.0,613.0,1.0,0.0,67.0
0,511.0,511.0,511.0,511.0,511.0,511.0,511.0,511.0,511.0,511.0,511.0,511.0,511.0,511.0,510.0,510.0,510.0,510.0,510.0,510.0,1022.0,1022.0,1022.0,1022.0,1022.0,1022.0,1022.0,1022.0,1022.0,1022.0,1022.0,1022.0,1022.0,1022.0,1022.0,1022.0,1022.0,1022.0,1022.0,1022.0,546.0,546.0,546.0,546.0,546.0,546.0,546.0,546.0,546.0,546.0,546.0,546.0,546.0,546.0,613.0,613.0,613.0,613.0,613.0,613.0,510.8666666666667,1022.0,554.9333333333333,510.0,1022.0,546.0,510.0,1022.0,613.0,511.0,1022.0,613.0,1.0,0.0,67.0
0,511.0,511.0,511.0,511.0,511.0,511.0,511.0,510.0,510.0,510.0,510.0,510.0,510.0,510.0,510.0,510.0,510.0,510.0,510.0,510.0,1022.0,1022.0,1022.0,1022.0,1022.0,1022.0,1022.0,1022.0,1022.0,1022.0,1022.0,1022.0,1022.0,1022.0,1022.0,1022.0,1022.0,1022.0,1022.0,1022.0,546.0,546.0,546.0,546.0,546.0,546.0,546.0,613.0,613.0,613.0,613.0,613.0,613.0,613.0,613.0,613.0,613.0,613.0,613.0,613.0,510.6,1022.0,572.8,510.0,1022.0,546.0,510.0,1022.0,613.0,511.0,1022.0,613.0,1.0,0.0,67.0
0,510.0,510.0,510.0,510.0,510.0,510.0,510.0,510.0,510.0,510.0,510.0,510.0,510.0,510.0,510.0,511.0,511.0,511.0,511.0,511.0,1022.0,1022.0,1022.0,1022.0,1022.0,1022.0,1022.0,1022.0,1022.0,1022.0,1022.0,1022.0,1022.0,1022.0,1022.0,908.0,908.0,908.0,908.0,908.0,613.0,613.0,613.0,613.0,563.0,563.0,563.0,563.0,563.0,563.0,563.0,563.0,563.0,563.0,563.0,574.0,574.0,574.0,574.0,574.0,510.06666666666666,1014.4,588.7333333333333,510.0,908.0,563.0,511.0,908.0,574.0,511.0,1022.0,613.0,1.0,114.0,50.0
0,511.0,511.0,511.0,511.0,511.0,511.0,511.0,511.0,511.0,511.0,509.0,509.0,509.0,509.0,509.0,509.0,509.0,509.0,509.0,509.0,908.0,908.0,908.0,908.0,908.0,908.0,908.0,908.0,908.0,587.0,587.0,587.0,587.0,587.0,587.0,587.0,587.0,587.0,587.0,587.0,574.0,574.0,574.0,574.0,574.0,574.0,574.0,574.0,574.0,825.0,825.0,825.0,825.0,825.0,825.0,825.0,825.0,825.0,825.0,825.0,510.23333333333335,830.7,647.4666666666667,509.0,587.0,574.0,509.0,587.0,825.0,511.0,908.0,825.0,2.0,435.0,262.0
0,511.0,511.0,511.0,509.0,509.0,509.0,509.0,509.0,509.0,509.0,509.0,509.0,509.0,509.0,509.0,509.0,509.0,509.0,509.0,509.0,908.0,908.0,908.0,587.0,587.0,587.0,587.0,587.0,587.0,587.0,587.0,587.0,587.0,587.0,587.0,587.0,587.0,587.0,587.0,587.0,574.0,574.0,574.0,825.0,825.0,825.0,825.0,825.0,825.0,825.0,825.0,825.0,825.0,825.0,825.0,825.0,825.0,825.0,825.0,825.0,509.8666666666667,726.1,716.2333333333333,509.0,587.0,574.0,509.0,587.0,825.0,511.0,908.0,825.0,2.0,321.0,251.0
0,509.0,509.0,509.0,509.0,509.0,509.0,509.0,509.0,509.0,509.0,509.0,509.0,509.0,509.0,509.0,509.0,509.0,509.0,509.0,509.0,587.0,587.0,587.0,587.0,587.0,587.0,587.0,587.0,587.0,587.0,12.0,12.0,12.0,12.0,12.0,12.0,12.0,12.0,12.0,12.0,825.0,825.0,825.0,825.0,825.0,825.0,825.0,825.0,825.0,825.0,1021.0,1021.0,1021.0,1021.0,1021.0,1021.0,1021.0,1021.0,1021.0,1021.0,509.1333333333333,455.06666666666666,860.5333333333333,509.0,12.0,825.0,509.0,12.0,1021.0,509.0,587.0,1021.0,2.0,896.0,447.0
0,509.0,509.0,509.0,509.0,509.0,509.0,509.0,509.0,512.0,512.0,512.0,512.0,512.0,512.0,512.0,512.0,512.0,508.0,508.0,508.0,12.0,12.0,12.0,12.0,12.0,12.0,12.0,12.0,0.0,0.0,0.0,0.0,0.0,0.0,0.0,0.0,0.0,0.0,0.0,0.0,1021.0,1021.0,1021.0,1021.0,1021.0,1021.0,1021.0,1021.0,1021.0,1021.0,1021.0,1021.0,1021.0,1021.0,1021.0,1021.0,1021.0,862.0,862.0,862.0,510.0,199.66666666666666,955.6666666666666,509.0,0.0,1021.0,512.0,0.0,1021.0,512.0,12.0,1021.0,3.0,587.0,196.0
0,512.0,512.0,512.0,508.0,508.0,508.0,508.0,508.0,508.0,508.0,508.0,508.0,508.0,508.0,508.0,508.0,508.0,508.0,508.0,508.0,0.0,0.0,0.0,0.0,0.0,0.0,0.0,0.0,0.0,0.0,0.0,0.0,0.0,0.0,0.0,0.0,0.0,0.0,0.0,0.0,1021.0,1021.0,1021.0,862.0,862.0,862.0,862.0,862.0,862.0,862.0,862.0,675.0,675.0,675.0,675.0,675.0,675.0,675.0,675.0,675.0,509.46666666666664,1.6,898.8,508.0,0.0,675.0,508.0,0.0,675.0,512.0,0.0,1021.0,4.0,12.0,346.0
0,508.0,508.0,508.0,508.0,508.0,508.0,508.0,508.0,508.0,508.0,508.0,508.0,508.0,508.0,508.0,508.0,506.0,506.0,506.0,506.0,0.0,0.0,0.0,0.0,0.0,0.0,0.0,0.0,0.0,0.0,0.0,0.0,0.0,0.0,0.0,0.0,0.0,0.0,0.0,0.0,675.0,675.0,675.0,675.0,675.0,675.0,675.0,675.0,675.0,675.0,675.0,675.0,675.0,675.0,675.0,675.0,589.0,589.0,589.0,589.0,508.0,0.0,693.7,508.0,0.0,675.0,508.0,0.0,675.0,508.0,0.0,675.0,0.0,0.0,187.0
0,506.0,506.0,506.0,506.0,506.0,506.0,506.0,506.0,506.0,505.0,505.0,505.0,505.0,505.0,505.0,505.0,505.0,505.0,505.0,505.0,0.0,0.0,0.0,0.0,0.0,0.0,0.0,0.0,0.0,0.0,0.0,0.0,0.0,0.0,0.0,0.0,0.0,0.0,0.0,0.0,589.0,589.0,589.0,589.0,589.0,589.0,589.0,589.0,589.0,433.0,433.0,433.0,433.0,433.0,433.0,433.0,433.0,433.0,433.0,433.0,505.9,0.0,550.8,505.0,0.0,433.0,505.0,0.0,433.0,506.0,0.0,589.0,3.0,0.0,242.0
0,505.0,505.0,505.0,505.0,505.0,505.0,505.0,505.0,505.0,505.0,505.0,505.0,505.0,505.0,505.0,505.0,505.0,505.0,506.0,506.0,0.0,0.0,0.0,0.0,0.0,0.0,0.0,0.0,0.0,0.0,0.0,0.0,0.0,0.0,0.0,0.0,0.0,0.0,0.0,0.0,433.0,433.0,433.0,433.0,433.0,433.0,433.0,433.0,433.0,433.0,433.0,433.0,433.0,433.0,433.0,433.0,433.0,433.0,397.0,397.0,505.3,0.0,479.8,505.0,0.0,433.0,505.0,0.0,433.0,505.0,0.0,433.0,1.0,0.0,156.0
0,505.0,505.0,505.0,505.0,505.0,505.0,505.0,506.0,506.0,506.0,506.0,506.0,506.0,506.0,506.0,506.0,506.0,507.0,507.0,507.0,0.0,0.0,0.0,0.0,0.0,0.0,0.0,0.0,0.0,0.0,0.0,0.0,0.0,0.0,0.0,0.0,0.0,0.0,0.0,0.0,433.0,433.0,433.0,433.0,433.0,433.0,433.0,397.0,397.0,397.0,397.0,397.0,397.0,397.0,397.0,397.0,397.0,397.0,397.0,397.0,505.43333333333334,0.0,418.6,505.0,0.0,397.0,506.0,0.0,397.0,507.0,0.0,433.0,1.0,0.0,36.0
0,506.0,506.0,506.0,506.0,506.0,506.0,507.0,507.0,507.0,507.0,507.0,507.0,507.0,507.0,507.0,507.0,507.0,507.0,507.0,507.0,0.0,0.0,0.0,0.0,0.0,0.0,0.0,0.0,0.0,0.0,0.0,0.0,0.0,0.0,0.0,0.0,0.0,0.0,0.0,0.0,397.0,397.0,397.0,397.0,397.0,397.0,397.0,397.0,397.0,397.0,397.0,397.0,397.0,397.0,397.0,397.0,397.0,397.0,397.0,397.0,506.3,0.0,403.0,506.0,0.0,397.0,507.0,0.0,397.0,507.0,0.0,397.0,2.0,0.0,36.0
0,507.0,507.0,507.0,507.0,507.0,507.0,507.0,507.0,507.0,507.0,507.0,507.0,507.0,507.0,507.0,507.0,509.0,509.0,509.0,509.0,0.0,0.0,0.0,0.0,0.0,0.0,4.0,4.0,4.0,4.0,4.0,4.0,4.0,4.0,4.0,4.0,12.0,12.0,12.0,12.0,397.0,397.0,397.0,397.0,397.0,397.0,410.0,410.0,410.0,410.0,410.0,410.0,410.0,410.0,410.0,410.0,430.0,430.0,430.0,430.0,507.1,2.1333333333333333,403.53333333333336,507.0,0.0,397.0,509.0,12.0,430.0,509.0,12.0,430.0,3.0,12.0,33.0
0,507.0,509.0,509.0,509.0,509.0,509.0,509.0,509.0,509.0,509.0,509.0,509.0,509.0,507.0,507.0,507.0,507.0,507.0,507.0,507.0,4.0,12.0,12.0,12.0,12.0,12.0,12.0,12.0,12.0,12.0,12.0,12.0,12.0,27.0,27.0,27.0,27.0,27.0,27.0,27.0,410.0,430.0,430.0,430.0,430.0,430.0,430.0,430.0,430.0,430.0,430.0,430.0,430.0,382.0,382.0,382.0,382.0,382.0,382.0,382.0,507.8666666666667,11.033333333333333,413.1333333333333,507.0,4.0,382.0,507.0,27.0,382.0,509.0,27.0,430.0,2.0,27.0,48.0
0,507.0,507.0,507.0,507.0,507.0,507.0,507.0,507.0,507.0,507.0,507.0,507.0,507.0,506.0,506.0,506.0,506.0,506.0,506.0,506.0,27.0,27.0,27.0,27.0,27.0,27.0,27.0,27.0,27.0,27.0,27.0,27.0,27.0,57.0,57.0,57.0,57.0,57.0,57.0,57.0,382.0,382.0,382.0,382.0,382.0,382.0,382.0,382.0,382.0,382.0,382.0,382.0,382.0,448.0,448.0,448.0,448.0,448.0,448.0,448.0,507.43333333333334,27.5,407.4,506.0,27.0,382.0,506.0,57.0,448.0,507.0,57.0,448.0,3.0,45.0,66.0
0,506.0,506.0,506.0,506.0,506.0,506.0,506.0,506.0,506.0,506.0,506.0,506.0,506.0,506.0,506.0,506.0,506.0,506.0,506.0,506.0,57.0,57.0,57.0,57.0,57.0,57.0,57.0,57.0,57.0,57.0,57.0,57.0,57.0,192.0,192.0,192.0,192.0,192.0,192.0,192.0,448.0,448.0,448.0,448.0,448.0,448.0,448.0,448.0,448.0,448.0,448.0,448.0,448.0,479.0,479.0,479.0,479.0,479.0,479.0,479.0,506.3666666666667,59.5,426.9,506.0,57.0,448.0,506.0,192.0,479.0,506.0,192.0,479.0,1.0,165.0,97.0
0,506.0,506.0,506.0,506.0,506.0,506.0,506.0,506.0,506.0,506.0,506.0,506.0,506.0,506.0,506.0,506.0,506.0,506.0,509.0,509.0,57.0,57.0,57.0,192.0,192.0,192.0,192.0,192.0,192.0,192.0,192.0,192.0,192.0,192.0,192.0,192.0,192.0,192.0,277.0,277.0,448.0,448.0,448.0,479.0,479.0,479.0,479.0,479.0,479.0,479.0,479.0,479.0,479.0,479.0,479.0,479.0,479.0,479.0,441.0,441.0,506.0,133.5,465.56666666666666,506.0,57.0,448.0,506.0,192.0,479.0,506.0,192.0,479.0,0.0,135.0,31.0
0,506.0,506.0,506.0,506.0,506.0,506.0,509.0,509.0,509.0,509.0,509.0,509.0,509.0,509.0,509.0,509.0,509.0,509.0,511.0,511.0,192.0,192.0,192.0,192.0,192.0,192.0,277.0,277.0,277.0,277.0,277.0,277.0,277.0,277.0,277.0,277.0,277.0,277.0,348.0,348.0,479.0,479.0,479.0,479.0,479.0,479.0,441.0,441.0,441.0,441.0,441.0,441.0,441.0,441.0,441.0,441.0,441.0,441.0,482.0,482.0,507.3,228.83333333333334,462.53333333333336,506.0,192.0,441.0,509.0,277.0,441.0,511.0,348.0,482.0,3.0,85.0,38.0
0,511.0,511.0,511.0,511.0,511.0,511.0,511.0,511.0,511.0,511.0,511.0,511.0,511.0,511.0,511.0,511.0,511.0,511.0,511.0,511.0,348.0,348.0,348.0,348.0,348.0,348.0,348.0,348.0,348.0,348.0,348.0,348.0,348.0,645.0,645.0,645.0,645.0,645.0,645.0,645.0,482.0,482.0,482.0,482.0,482.0,482.0,482.0,482.0,482.0,482.0,482.0,482.0,482.0,446.0,446.0,446.0,446.0,446.0,446.0,446.0,510.3333333333333,363.93333333333334,463.53333333333336,511.0,348.0,446.0,511.0,645.0,446.0,511.0,645.0,482.0,2.0,368.0,41.0
0,511.0,511.0,511.0,511.0,511.0,511.0,511.0,511.0,512.0,512.0,512.0,512.0,512.0,512.0,512.0,512.0,512.0,512.0,512.0,512.0,645.0,645.0,645.0,645.0,645.0,645.0,645.0,645.0,933.0,933.0,933.0,933.0,933.0,933.0,933.0,933.0,933.0,933.0,933.0,933.0,446.0,446.0,446.0,446.0,446.0,446.0,446.0,446.0,418.0,418.0,418.0,418.0,418.0,418.0,418.0,418.0,418.0,418.0,418.0,418.0,511.3333333333333,711.3,440.26666666666665,511.0,645.0,418.0,512.0,933.0,418.0,512.0,933.0,446.0,1.0,585.0,64.0
0,512.0,512.0,512.0,512.0,512.0,512.0,512.0,512.0,512.0,512.0,512.0,512.0,512.0,512.0,512.0,512.0,512.0,512.0,512.0,512.0,933.0,933.0,933.0,933.0,933.0,933.0,933.0,933.0,933.0,933.0,1022.0,1022.0,1022.0,1022.0,1022.0,1022.0,1022.0,1022.0,1022.0,1022.0,418.0,418.0,418.0,418.0,418.0,418.0,418.0,418.0,418.0,418.0,485.0,485.0,485.0,485.0,485.0,485.0,485.0,485.0,485.0,485.0,512.0,956.7333333333333,435.8666666666667,512.0,933.0,418.0,512.0,1022.0,485.0,512.0,1022.0,485.0,0.0,89.0,67.0
0,512.0,512.0,512.0,512.0,512.0,512.0,512.0,512.0,512.0,512.0,512.0,512.0,512.0,512.0,512.0,512.0,512.0,512.0,512.0,512.0,933.0,1022.0,1022.0,1022.0,1022.0,1022.0,1022.0,1022.0,1022.0,1022.0,1022.0,1022.0,1022.0,1022.0,1022.0,1022.0,1022.0,1022.0,1022.0,1022.0,418.0,485.0,485.0,485.0,485.0,485.0,485.0,485.0,485.0,485.0,485.0,485.0,485.0,485.0,485.0,485.0,485.0,485.0,485.0,485.0,512.0,989.3666666666667,460.43333333333334,512.0,933.0,418.0,512.0,1022.0,485.0,512.0,1022.0,485.0,0.0,89.0,67.0
0,512.0,512.0,512.0,512.0,512.0,512.0,512.0,512.0,512.0,512.0,512.0,512.0,512.0,512.0,512.0,510.0,510.0,510.0,510.0,510.0,1022.0,1022.0,1022.0,1022.0,1022.0,1022.0,1022.0,1022.0,1022.0,1022.0,1022.0,1022.0,1022.0,1022.0,1022.0,1022.0,1022.0,1022.0,1022.0,1022.0,485.0,485.0,485.0,485.0,485.0,485.0,485.0,485.0,485.0,485.0,485.0,485.0,485.0,485.0,485.0,495.0,495.0,495.0,495.0,495.0,511.73333333333335,1022.0,486.3333333333333,510.0,1022.0,485.0,510.0,1022.0,495.0,512.0,1022.0,495.0,2.0,0.0,10.0
0,510.0,510.0,510.0,510.0,510.0,510.0,510.0,510.0,510.0,510.0,510.0,510.0,510.0,513.0,513.0,513.0,513.0,513.0,513.0,513.0,1022.0,1022.0,1022.0,1022.0,1022.0,1022.0,1022.0,1022.0,1022.0,1022.0,1022.0,1022.0,1022.0,1021.0,1021.0,1021.0,1021.0,1021.0,1021.0,1021.0,495.0,495.0,495.0,495.0,495.0,495.0,495.0,495.0,495.0,495.0,495.0,495.0,627.0,627.0,627.0,627.0,627.0,627.0,627.0,627.0,511.26666666666665,1021.8,518.0666666666667,510.0,1021.0,495.0,513.0,1021.0,627.0,513.0,1022.0,627.0,3.0,1.0,142.0
0,510.0,510.0,513.0,513.0,513.0,513.0,513.0,513.0,513.0,513.0,513.0,513.0,513.0,513.0,513.0,513.0,509.0,509.0,509.0,509.0,1022.0,1022.0,1021.0,1021.0,1021.0,1021.0,1021.0,1021.0,1021.0,1021.0,1021.0,1021.0,1021.0,1021.0,1021.0,1021.0,865.0,865.0,865.0,865.0,495.0,495.0,627.0,627.0,627.0,627.0,627.0,627.0,627.0,627.0,627.0,627.0,627.0,627.0,627.0,627.0,880.0,880.0,880.0,880.0,511.53333333333336,1011.0,591.0666666666667,509.0,865.0,495.0,509.0,865.0,880.0,513.0,1022.0,880.0,4.0,157.0,385.0
0,513.0,513.0,513.0,513.0,513.0,513.0,513.0,513.0,509.0,509.0,509.0,509.0,509.0,509.0,509.0,509.0,509.0,508.0,508.0,508.0,1021.0,1021.0,1021.0,1021.0,1021.0,1021.0,1021.0,1021.0,865.0,865.0,865.0,865.0,865.0,865.0,865.0,865.0,865.0,740.0,740.0,740.0,627.0,627.0,627.0,627.0,627.0,627.0,627.0,627.0,880.0,880.0,880.0,880.0,880.0,880.0,880.0,880.0,880.0,863.0,863.0,863.0,511.26666666666665,969.1333333333333,693.7333333333333,509.0,865.0,627.0,509.0,865.0,880.0,513.0,1021.0,880.0,4.0,157.0,385.0
0,509.0,509.0,509.0,509.0,509.0,509.0,509.0,508.0,508.0,508.0,508.0,508.0,508.0,508.0,508.0,508.0,508.0,509.0,509.0,509.0,865.0,865.0,865.0,865.0,865.0,865.0,865.0,740.0,740.0,740.0,740.0,740.0,740.0,740.0,740.0,740.0,740.0,425.0,425.0,425.0,880.0,880.0,880.0,880.0,880.0,880.0,880.0,863.0,863.0,863.0,863.0,863.0,863.0,863.0,863.0,863.0,863.0,746.0,746.0,746.0,509.73333333333335,835.6,797.9333333333333,508.0,425.0,746.0,509.0,425.0,746.0,509.0,865.0,880.0,5.0,596.0,253.0
0,509.0,508.0,508.0,508.0,508.0,508.0,508.0,508.0,508.0,508.0,509.0,509.0,509.0,509.0,509.0,510.0,510.0,510.0,510.0,510.0,865.0,740.0,740.0,740.0,740.0,740.0,740.0,740.0,740.0,740.0,425.0,425.0,425.0,425.0,425.0,0.0,0.0,0.0,0.0,0.0,880.0,863.0,863.0,863.0,863.0,863.0,863.0,863.0,863.0,863.0,746.0,746.0,746.0,746.0,746.0,779.0,779.0,779.0,779.0,779.0,508.93333333333334,716.4,821.7333333333333,508.0,425.0,746.0,509.0,425.0,746.0,509.0,865.0,880.0,5.0,596.0,253.0
0,509.0,509.0,509.0,509.0,509.0,510.0,510.0,510.0,510.0,510.0,510.0,510.0,510.0,507.0,507.0,507.0,507.0,507.0,507.0,507.0,425.0,425.0,425.0,425.0,425.0,0.0,0.0,0.0,0.0,0.0,0.0,0.0,0.0,0.0,0.0,0.0,0.0,0.0,0.0,0.0,746.0,746.0,746.0,746.0,746.0,779.0,779.0,779.0,779.0,779.0,779.0,779.0,779.0,743.0,743.0,743.0,743.0,743.0,743.0,743.0,508.6333333333333,335.3333333333333,789.4,507.0,0.0,743.0,507.0,0.0,743.0,510.0,425.0,779.0,3.0,740.0,120.0
0,507.0,507.0,507.0,507.0,507.0,507.0,507.0,507.0,507.0,507.0,507.0,507.0,507.0,508.0,508.0,508.0,508.0,508.0,508.0,508.0,0.0,0.0,0.0,0.0,0.0,0.0,0.0,0.0,0.0,0.0,0.0,0.0,0.0,0.0,0.0,0.0,0.0,0.0,0.0,0.0,743.0,743.0,743.0,743.0,743.0,743.0,743.0,743.0,743.0,743.0,743.0,743.0,743.0,547.0,547.0,547.0,547.0,547.0,547.0,547.0,508.06666666666666,28.333333333333332,726.6666666666666,507.0,0.0,547.0,508.0,0.0,547.0,508.0,0.0,743.0,3.0,425.0,232.0
0,508.0,508.0,508.0,508.0,508.0,508.0,508.0,505.0,505.0,505.0,505.0,505.0,505.0,505.0,505.0,505.0,505.0,505.0,505.0,505.0,0.0,0.0,0.0,0.0,0.0,0.0,0.0,79.0,79.0,79.0,79.0,79.0,79.0,79.0,79.0,79.0,79.0,79.0,79.0,79.0,547.0,547.0,547.0,547.0,547.0,547.0,547.0,402.0,402.0,402.0,402.0,402.0,402.0,402.0,402.0,402.0,402.0,402.0,402.0,402.0,506.73333333333335,31.6,502.06666666666666,505.0,0.0,402.0,505.0,79.0,402.0,508.0,79.0,547.0,3.0,79.0,341.0
0,505.0,505.0,505.0,505.0,505.0,505.0,505.0,505.0,505.0,505.0,505.0,507.0,507.0,507.0,507.0,507.0,507.0,507.0,507.0,507.0,79.0,79.0,79.0,79.0,79.0,79.0,79.0,79.0,79.0,79.0,79.0,128.0,128.0,128.0,128.0,128.0,128.0,128.0,128.0,128.0,402.0,402.0,402.0,402.0,402.0,402.0,402.0,402.0,402.0,402.0,405.0,405.0,405.0,405.0,405.0,405.0,405.0,405.0,405.0,405.0,505.53333333333336,92.06666666666666,402.8,505.0,79.0,402.0,507.0,128.0,405.0,507.0,128.0,405.0,2.0,49.0,3.0
0,507.0,507.0,507.0,507.0,507.0,507.0,507.0,507.0,507.0,507.0,507.0,507.0,507.0,507.0,508.0,508.0,508.0,508.0,508.0,508.0,128.0,128.0,128.0,128.0,128.0,128.0,128.0,128.0,128.0,128.0,128.0,128.0,128.0,128.0,90.0,90.0,90.0,90.0,90.0,90.0,405.0,405.0,405.0,405.0,405.0,405.0,405.0,405.0,405.0,405.0,405.0,405.0,405.0,405.0,380.0,380.0,380.0,380.0,380.0,380.0,506.56666666666666,111.13333333333334,401.7,507.0,90.0,380.0,508.0,90.0,380.0,508.0,128.0,405.0,3.0,49.0,25.0
0,507.0,507.0,507.0,508.0,508.0,508.0,508.0,508.0,508.0,508.0,508.0,508.0,508.0,509.0,509.0,509.0,509.0,509.0,509.0,509.0,128.0,128.0,128.0,90.0,90.0,90.0,90.0,90.0,90.0,90.0,90.0,90.0,90.0,110.0,110.0,110.0,110.0,110.0,110.0,110.0,405.0,405.0,405.0,380.0,380.0,380.0,380.0,380.0,380.0,380.0,380.0,380.0,380.0,405.0,405.0,405.0,405.0,405.0,405.0,405.0,507.76666666666665,110.46666666666667,395.8333333333333,507.0,90.0,380.0,509.0,110.0,405.0,509.0,128.0,405.0,2.0,38.0,25.0
0,508.0,509.0,509.0,509.0,509.0,509.0,509.0,509.0,509.0,509.0,509.0,509.0,509.0,509.0,510.0,510.0,510.0,510.0,510.0,510.0,90.0,110.0,110.0,110.0,110.0,110.0,110.0,110.0,110.0,110.0,110.0,110.0,110.0,110.0,47.0,47.0,47.0,47.0,47.0,47.0,405.0,405.0,405.0,405.0,405.0,405.0,405.0,405.0,405.0,405.0,405.0,405.0,405.0,405.0,420.0,420.0,420.0,420.0,420.0,420.0,508.76666666666665,94.26666666666667,397.8333333333333,508.0,47.0,380.0,510.0,47.0,420.0,510.0,110.0,420.0,2.0,63.0,40.0
0,510.0,510.0,510.0,510.0,510.0,510.0,510.0,510.0,510.0,506.0,506.0,506.0,506.0,506.0,506.0,506.0,506.0,506.0,506.0,506.0,47.0,47.0,47.0,47.0,47.0,47.0,47.0,47.0,47.0,95.0,95.0,95.0,95.0,95.0,95.0,95.0,95.0,95.0,95.0,95.0,420.0,420.0,420.0,420.0,420.0,420.0,420.0,420.0,420.0,318.0,318.0,318.0,318.0,318.0,318.0,318.0,318.0,318.0,318.0,318.0,508.6333333333333,78.7,388.3,506.0,47.0,318.0,506.0,95.0,318.0,510.0,95.0,420.0,4.0,63.0,102.0
0,506.0,506.0,506.0,506.0,506.0,506.0,506.0,506.0,506.0,506.0,506.0,506.0,506.0,506.0,506.0,506.0,506.0,506.0,506.0,506.0,95.0,95.0,95.0,95.0,95.0,95.0,95.0,95.0,95.0,95.0,95.0,95.0,95.0,95.0,95.0,95.0,95.0,95.0,73.0,73.0,318.0,318.0,318.0,318.0,318.0,318.0,318.0,318.0,318.0,318.0,318.0,318.0,318.0,318.0,318.0,318.0,318.0,318.0,335.0,335.0,507.3333333333333,79.0,352.0,506.0,95.0,318.0,506.0,95.0,318.0,506.0,95.0,318.0,4.0,48.0,102.0
0,506.0,506.0,506.0,506.0,506.0,506.0,506.0,506.0,506.0,506.0,506.0,506.0,506.0,504.0,504.0,504.0,504.0,504.0,504.0,504.0,95.0,95.0,95.0,95.0,95.0,95.0,73.0,73.0,73.0,73.0,73.0,73.0,73.0,14.0,14.0,14.0,14.0,14.0,14.0,14.0,318.0,318.0,318.0,318.0,318.0,318.0,335.0,335.0,335.0,335.0,335.0,335.0,335.0,308.0,308.0,308.0,308.0,308.0,308.0,308.0,506.1333333333333,86.8,326.5,506.0,73.0,318.0,506.0,73.0,335.0,506.0,95.0,335.0,4.0,48.0,102.0
0,504.0,504.0,504.0,504.0,504.0,504.0,504.0,504.0,504.0,504.0,504.0,504.0,504.0,504.0,507.0,507.0,507.0,507.0,507.0,507.0,14.0,14.0,14.0,14.0,14.0,14.0,14.0,14.0,14.0,14.0,14.0,14.0,14.0,14.0,460.0,460.0,460.0,460.0,460.0,460.0,308.0,308.0,308.0,308.0,308.0,308.0,308.0,308.0,308.0,308.0,308.0,308.0,308.0,308.0,349.0,349.0,349.0,349.0,349.0,349.0,504.73333333333335,83.3,317.96666666666664,504.0,14.0,308.0,507.0,460.0,349.0,507.0,460.0,349.0,3.0,446.0,41.0
0,504.0,504.0,504.0,504.0,504.0,504.0,504.0,504.0,504.0,507.0,507.0,507.0,507.0,507.0,507.0,507.0,507.0,509.0,509.0,509.0,14.0,14.0,14.0,14.0,14.0,14.0,14.0,14.0,14.0,460.0,460.0,460.0,460.0,460.0,460.0,460.0,460.0,542.0,542.0,542.0,308.0,308.0,308.0,308.0,308.0,308.0,308.0,308.0,308.0,349.0,349.0,349.0,349.0,349.0,349.0,349.0,349.0,426.0,426.0,426.0,505.0,162.66666666666666,321.6666666666667,504.0,14.0,308.0,507.0,460.0,349.0,507.0,460.0,349.0,3.0,446.0,41.0
0,507.0,507.0,509.0,509.0,509.0,509.0,509.0,509.0,509.0,512.0,512.0,512.0,512.0,512.0,512.0,512.0,512.0,512.0,512.0,512.0,460.0,542.0,542.0,542.0,542.0,542.0,542.0,542.0,542.0,581.0,581.0,581.0,581.0,581.0,581.0,581.0,581.0,581.0,581.0,581.0,349.0,426.0,426.0,426.0,426.0,426.0,426.0,426.0,426.0,370.0,370.0,370.0,370.0,370.0,370.0,370.0,370.0,370.0,370.0,370.0,508.6333333333333,472.26666666666665,373.6,507.0,460.0,349.0,512.0,581.0,370.0,512.0,581.0,426.0,8.0,567.0,118.0
0,512.0,512.0,512.0,512.0,512.0,512.0,512.0,512.0,512.0,512.0,512.0,512.0,512.0,512.0,514.0,514.0,514.0,514.0,514.0,514.0,581.0,581.0,581.0,581.0,581.0,581.0,581.0,581.0,581.0,581.0,581.0,581.0,581.0,581.0,314.0,314.0,314.0,314.0,314.0,314.0,370.0,370.0,370.0,370.0,370.0,370.0,370.0,370.0,370.0,370.0,370.0,370.0,370.0,370.0,388.0,388.0,388.0,388.0,388.0,388.0,511.8333333333333,530.0,382.3333333333333,512.0,314.0,370.0,514.0,314.0,388.0,514.0,581.0,388.0,5.0,267.0,56.0
0,514.0,514.0,514.0,514.0,514.0,514.0,514.0,514.0,514.0,514.0,514.0,514.0,514.0,514.0,515.0,515.0,515.0,515.0,515.0,515.0,314.0,314.0,314.0,314.0,314.0,314.0,314.0,314.0,314.0,314.0,314.0,314.0,314.0,314.0,331.0,331.0,331.0,331.0,331.0,331.0,388.0,388.0,388.0,388.0,388.0,388.0,388.0,388.0,388.0,388.0,388.0,388.0,388.0,388.0,391.0,391.0,391.0,391.0,391.0,391.0,513.5333333333333,406.4,382.6,514.0,314.0,388.0,515.0,331.0,391.0,515.0,331.0,391.0,3.0,267.0,21.0
0,514.0,514.0,514.0,514.0,514.0,515.0,515.0,515.0,515.0,515.0,515.0,515.0,515.0,515.0,515.0,515.0,515.0,510.0,510.0,510.0,314.0,314.0,314.0,314.0,314.0,331.0,331.0,331.0,331.0,331.0,331.0,331.0,331.0,331.0,331.0,331.0,331.0,895.0,895.0,895.0,388.0,388.0,388.0,388.0,388.0,391.0,391.0,391.0,391.0,391.0,391.0,391.0,391.0,391.0,391.0,391.0,391.0,404.0,404.0,404.0,514.1333333333333,356.4,386.8,514.0,314.0,388.0,515.0,331.0,391.0,515.0,331.0,391.0,3.0,267.0,21.0
0,515.0,515.0,515.0,515.0,515.0,515.0,510.0,510.0,510.0,510.0,510.0,510.0,510.0,510.0,510.0,508.0,508.0,508.0,508.0,508.0,331.0,331.0,331.0,331.0,331.0,331.0,895.0,895.0,895.0,895.0,895.0,895.0,895.0,895.0,895.0,1019.0,1019.0,1019.0,1019.0,1019.0,391.0,391.0,391.0,391.0,391.0,391.0,404.0,404.0,404.0,404.0,404.0,404.0,404.0,404.0,404.0,421.0,421.0,421.0,421.0,421.0,512.8666666666667,559.6,396.56666666666666,508.0,331.0,391.0,510.0,895.0,404.0,515.0,1019.0,421.0,5.0,581.0,33.0
0,508.0,508.0,508.0,508.0,508.0,509.0,509.0,509.0,509.0,509.0,509.0,509.0,509.0,509.0,509.0,509.0,509.0,509.0,509.0,509.0,1019.0,1019.0,1019.0,1019.0,1019.0,1006.0,1006.0,1006.0,1006.0,1006.0,1006.0,1006.0,1006.0,1006.0,1006.0,1006.0,1006.0,1006.0,1006.0,1006.0,421.0,421.0,421.0,421.0,421.0,341.0,341.0,341.0,341.0,341.0,341.0,341.0,341.0,341.0,341.0,341.0,341.0,341.0,341.0,341.0,508.53333333333336,1008.8,383.1,508.0,1006.0,341.0,509.0,1006.0,341.0,509.0,1019.0,421.0,2.0,124.0,80.0
0,509.0,509.0,509.0,509.0,509.0,509.0,509.0,509.0,509.0,513.0,513.0,513.0,513.0,513.0,511.0,511.0,511.0,511.0,511.0,511.0,1006.0,1006.0,1006.0,1006.0,1006.0,1006.0,1006.0,1006.0,1006.0,984.0,984.0,984.0,984.0,984.0,944.0,944.0,944.0,944.0,944.0,944.0,341.0,341.0,341.0,341.0,341.0,341.0,341.0,341.0,341.0,352.0,352.0,352.0,352.0,352.0,441.0,441.0,441.0,441.0,441.0,441.0,509.8666666666667,1000.5333333333333,357.56666666666666,509.0,944.0,341.0,511.0,944.0,441.0,513.0,1006.0,441.0,5.0,75.0,100.0
0,511.0,511.0,511.0,511.0,512.0,512.0,512.0,512.0,512.0,512.0,512.0,512.0,512.0,512.0,512.0,512.0,512.0,512.0,512.0,512.0,944.0,944.0,944.0,944.0,825.0,825.0,825.0,825.0,825.0,825.0,825.0,825.0,825.0,825.0,825.0,825.0,825.0,825.0,825.0,825.0,441.0,441.0,441.0,441.0,467.0,467.0,467.0,467.0,467.0,467.0,467.0,467.0,467.0,467.0,467.0,467.0,467.0,467.0,467.0,467.0,511.53333333333336,889.8,450.1666666666667,511.0,825.0,441.0,512.0,825.0,467.0,512.0,944.0,467.0,2.0,159.0,115.0
0,512.0,512.0,512.0,512.0,512.0,512.0,512.0,512.0,512.0,512.0,512.0,512.0,512.0,508.0,508.0,508.0,508.0,508.0,508.0,508.0,825.0,825.0,825.0,825.0,825.0,825.0,825.0,825.0,825.0,825.0,825.0,825.0,825.0,573.0,573.0,573.0,573.0,573.0,573.0,573.0,467.0,467.0,467.0,467.0,467.0,467.0,467.0,467.0,467.0,467.0,467.0,467.0,467.0,488.0,488.0,488.0,488.0,488.0,488.0,488.0,511.26666666666665,790.9333333333333,468.76666666666665,508.0,573.0,467.0,508.0,573.0,488.0,512.0,825.0,488.0,4.0,371.0,47.0
0,512.0,512.0,512.0,512.0,512.0,508.0,508.0,508.0,508.0,508.0,508.0,508.0,508.0,508.0,508.0,508.0,508.0,508.0,508.0,505.0,825.0,825.0,825.0,825.0,825.0,573.0,573.0,573.0,573.0,573.0,573.0,573.0,573.0,573.0,573.0,573.0,573.0,573.0,573.0,378.0,467.0,467.0,467.0,467.0,467.0,488.0,488.0,488.0,488.0,488.0,488.0,488.0,488.0,488.0,488.0,488.0,488.0,488.0,488.0,515.0,509.9,692.5,478.4,505.0,378.0,467.0,505.0,378.0,515.0,512.0,825.0,515.0,7.0,447.0,48.0
0,508.0,508.0,508.0,508.0,508.0,508.0,508.0,508.0,508.0,508.0,508.0,508.0,508.0,505.0,505.0,505.0,505.0,508.0,508.0,508.0,573.0,573.0,573.0,573.0,573.0,573.0,573.0,573.0,573.0,573.0,573.0,573.0,573.0,378.0,378.0,378.0,378.0,0.0,0.0,0.0,488.0,488.0,488.0,488.0,488.0,488.0,488.0,488.0,488.0,488.0,488.0,488.0,488.0,515.0,515.0,515.0,515.0,498.0,498.0,498.0,508.8333333333333,605.4,485.8333333333333,505.0,0.0,488.0,505.0,378.0,515.0,508.0,573.0,515.0,7.0,825.0,48.0
0,508.0,508.0,508.0,508.0,508.0,505.0,505.0,505.0,505.0,505.0,508.0,508.0,508.0,508.0,508.0,508.0,508.0,510.0,510.0,510.0,573.0,573.0,573.0,573.0,573.0,378.0,378.0,378.0,378.0,378.0,0.0,0.0,0.0,0.0,0.0,0.0,0.0,0.0,0.0,0.0,488.0,488.0,488.0,488.0,488.0,515.0,515.0,515.0,515.0,515.0,498.0,498.0,498.0,498.0,498.0,498.0,483.0,483.0,483.0,483.0,507.9,385.4,493.1,505.0,0.0,483.0,510.0,0.0,483.0,510.0,573.0,515.0,7.0,825.0,48.0
0,505.0,508.0,508.0,508.0,508.0,508.0,508.0,508.0,510.0,510.0,510.0,510.0,510.0,510.0,510.0,510.0,510.0,510.0,510.0,508.0,378.0,0.0,0.0,0.0,0.0,0.0,0.0,0.0,0.0,0.0,0.0,0.0,0.0,0.0,0.0,0.0,0.0,0.0,0.0,0.0,515.0,498.0,498.0,498.0,498.0,498.0,498.0,498.0,483.0,483.0,483.0,483.0,483.0,483.0,483.0,483.0,483.0,483.0,483.0,516.0,508.1666666666667,215.8,493.0,505.0,0.0,483.0,510.0,0.0,483.0,510.0,378.0,515.0,5.0,573.0,32.0
0,510.0,510.0,510.0,510.0,510.0,508.0,508.0,508.0,508.0,508.0,508.0,508.0,508.0,508.0,506.0,506.0,506.0,506.0,506.0,506.0,0.0,0.0,0.0,0.0,0.0,0.0,0.0,0.0,0.0,0.0,0.0,0.0,0.0,0.0,0.0,0.0,0.0,0.0,0.0,0.0,483.0,483.0,483.0,483.0,483.0,516.0,516.0,516.0,516.0,516.0,516.0,516.0,516.0,488.0,488.0,488.0,488.0,488.0,488.0,488.0,508.4,0.0,495.4,506.0,0.0,483.0,506.0,0.0,488.0,510.0,0.0,516.0,4.0,0.0,33.0
0,506.0,506.0,506.0,506.0,506.0,506.0,506.0,506.0,506.0,506.0,506.0,506.0,506.0,506.0,506.0,506.0,506.0,506.0,506.0,506.0,0.0,0.0,0.0,0.0,0.0,0.0,0.0,0.0,0.0,13.0,13.0,13.0,13.0,13.0,13.0,13.0,13.0,13.0,13.0,13.0,488.0,488.0,488.0,488.0,488.0,488.0,488.0,488.0,488.0,436.0,436.0,436.0,436.0,436.0,436.0,436.0,436.0,436.0,436.0,436.0,506.06666666666666,4.766666666666667,469.8666666666667,506.0,0.0,436.0,506.0,13.0,436.0,506.0,13.0,488.0,2.0,13.0,80.0
0,506.0,506.0,506.0,506.0,506.0,506.0,506.0,506.0,506.0,506.0,506.0,506.0,506.0,506.0,506.0,506.0,506.0,506.0,506.0,506.0,13.0,13.0,13.0,13.0,13.0,13.0,13.0,13.0,13.0,13.0,13.0,13.0,13.0,13.0,13.0,0.0,0.0,0.0,0.0,0.0,436.0,436.0,436.0,436.0,436.0,436.0,436.0,436.0,436.0,436.0,436.0,436.0,436.0,436.0,436.0,486.0,486.0,486.0,486.0,486.0,506.0,8.666666666666666,453.06666666666666,506.0,0.0,436.0,506.0,0.0,486.0,506.0,13.0,486.0,0.0,13.0,52.0
0,506.0,506.0,506.0,506.0,506.0,506.0,506.0,506.0,506.0,506.0,506.0,507.0,507.0,507.0,507.0,507.0,507.0,507.0,507.0,507.0,0.0,0.0,0.0,0.0,0.0,0.0,0.0,0.0,0.0,0.0,0.0,39.0,39.0,39.0,39.0,39.0,39.0,39.0,39.0,39.0,486.0,486.0,486.0,486.0,486.0,486.0,486.0,486.0,486.0,486.0,486.0,539.0,539.0,539.0,539.0,539.0,539.0,539.0,539.0,539.0,506.26666666666665,12.566666666666666,491.8,506.0,0.0,486.0,507.0,39.0,539.0,507.0,39.0,539.0,1.0,39.0,103.0
0,507.0,507.0,507.0,507.0,507.0,507.0,507.0,507.0,507.0,507.0,508.0,508.0,508.0,508.0,508.0,508.0,508.0,508.0,508.0,508.0,39.0,39.0,39.0,39.0,39.0,39.0,39.0,39.0,39.0,39.0,33.0,33.0,33.0,33.0,33.0,33.0,33.0,33.0,33.0,33.0,539.0,539.0,539.0,539.0,539.0,539.0,539.0,539.0,539.0,539.0,528.0,528.0,528.0,528.0,528.0,528.0,528.0,528.0,528.0,528.0,507.3,35.7,533.5666666666667,507.0,33.0,528.0,508.0,33.0,528.0,508.0,39.0,539.0,2.0,39.0,53.0
0,507.0,507.0,507.0,508.0,508.0,508.0,508.0,508.0,508.0,508.0,508.0,508.0,508.0,508.0,508.0,508.0,508.0,514.0,514.0,514.0,39.0,39.0,39.0,33.0,33.0,33.0,33.0,33.0,33.0,33.0,33.0,33.0,33.0,33.0,33.0,33.0,33.0,35.0,35.0,35.0,539.0,539.0,539.0,528.0,528.0,528.0,528.0,528.0,528.0,528.0,528.0,528.0,528.0,528.0,528.0,528.0,528.0,515.0,515.0,515.0,507.73333333333335,35.86666666666667,532.7,507.0,33.0,515.0,514.0,35.0,515.0,514.0,39.0,539.0,7.0,6.0,24.0
0,514.0,514.0,514.0,507.0,507.0,507.0,507.0,507.0,507.0,507.0,507.0,507.0,507.0,507.0,507.0,507.0,507.0,505.0,505.0,505.0,35.0,35.0,35.0,54.0,54.0,54.0,54.0,54.0,54.0,54.0,54.0,54.0,54.0,54.0,54.0,54.0,54.0,100.0,100.0,100.0,515.0,515.0,515.0,491.0,491.0,491.0,491.0,491.0,491.0,491.0,491.0,491.0,491.0,491.0,491.0,491.0,498.0,498.0,498.0,498.0,509.53333333333336,43.46666666666667,506.4,507.0,35.0,491.0,507.0,54.0,491.0,514.0,54.0,515.0,7.0,21.0,37.0
0,505.0,505.0,505.0,505.0,505.0,505.0,505.0,505.0,505.0,505.0,506.0,506.0,506.0,506.0,506.0,506.0,506.0,506.0,506.0,506.0,100.0,100.0,100.0,100.0,100.0,100.0,100.0,100.0,100.0,100.0,153.0,153.0,153.0,153.0,153.0,153.0,153.0,153.0,153.0,153.0,498.0,498.0,498.0,498.0,498.0,498.0,498.0,498.0,498.0,498.0,509.0,509.0,509.0,509.0,509.0,509.0,509.0,509.0,509.0,509.0,505.8,106.93333333333334,500.03333333333336,505.0,100.0,498.0,506.0,153.0,509.0,506.0,153.0,509.0,2.0,99.0,18.0
0,506.0,506.0,506.0,506.0,506.0,506.0,506.0,506.0,506.0,510.0,510.0,510.0,510.0,510.0,510.0,510.0,510.0,513.0,513.0,513.0,153.0,153.0,153.0,153.0,153.0,153.0,153.0,153.0,153.0,269.0,269.0,269.0,269.0,269.0,269.0,269.0,269.0,296.0,296.0,296.0,509.0,509.0,509.0,509.0,509.0,509.0,509.0,509.0,509.0,471.0,471.0,471.0,471.0,471.0,471.0,471.0,478.0,478.0,478.0,478.0,507.1333333333333,179.86666666666667,496.0,506.0,153.0,471.0,513.0,296.0,478.0,513.0,296.0,509.0,8.0,196.0,38.0
0,513.0,513.0,513.0,513.0,513.0,513.0,512.0,512.0,512.0,512.0,512.0,512.0,512.0,512.0,512.0,512.0,512.0,512.0,512.0,512.0,296.0,296.0,296.0,296.0,296.0,296.0,837.0,837.0,837.0,837.0,837.0,837.0,837.0,837.0,837.0,837.0,837.0,837.0,837.0,837.0,478.0,478.0,478.0,478.0,478.0,478.0,459.0,459.0,459.0,459.0,459.0,459.0,459.0,459.0,459.0,459.0,459.0,459.0,459.0,459.0,512.0,507.0,469.0,512.0,296.0,459.0,512.0,837.0,459.0,513.0,837.0,478.0,3.0,568.0,19.0
0,514.0,514.0,514.0,514.0,514.0,514.0,514.0,514.0,514.0,514.0,514.0,514.0,514.0,510.0,510.0,510.0,510.0,510.0,510.0,510.0,1022.0,1022.0,1022.0,1022.0,1022.0,1022.0,1022.0,1022.0,1022.0,1022.0,1022.0,1022.0,1022.0,1022.0,1022.0,1022.0,1022.0,1022.0,1022.0,1022.0,460.0,460.0,460.0,460.0,460.0,460.0,460.0,460.0,460.0,460.0,460.0,460.0,460.0,508.0,508.0,508.0,508.0,508.0,508.0,508.0,512.6666666666666,948.0,467.6333333333333,510.0,837.0,459.0,510.0,1022.0,508.0,514.0,1022.0,508.0,4.0,185.0,49.0
0,514.0,510.0,510.0,510.0,510.0,510.0,510.0,510.0,510.0,510.0,510.0,510.0,510.0,510.0,510.0,510.0,510.0,510.0,510.0,510.0,1022.0,1022.0,1022.0,1022.0,1022.0,1022.0,1022.0,1022.0,1022.0,1022.0,1022.0,1022.0,1022.0,1022.0,1022.0,1022.0,1022.0,1022.0,1022.0,1022.0,460.0,508.0,508.0,508.0,508.0,508.0,508.0,508.0,508.0,508.0,508.0,508.0,508.0,508.0,508.0,508.0,508.0,505.0,505.0,505.0,511.6,1022.0,488.8,510.0,1022.0,460.0,510.0,1022.0,508.0,514.0,1022.0,508.0,4.0,0.0,48.0
0,510.0,510.0,510.0,510.0,510.0,510.0,510.0,510.0,510.0,510.0,510.0,510.0,510.0,509.0,509.0,509.0,509.0,509.0,509.0,509.0,1022.0,1022.0,1022.0,1022.0,1022.0,1022.0,1022.0,1022.0,1022.0,1022.0,1022.0,1022.0,1022.0,1021.0,1021.0,1021.0,1021.0,1021.0,1021.0,1021.0,505.0,505.0,505.0,505.0,505.0,505.0,505.0,505.0,505.0,505.0,505.0,505.0,505.0,504.0,504.0,504.0,504.0,504.0,504.0,504.0,509.8333333333333,1021.8333333333334,505.8333333333333,509.0,1021.0,504.0,509.0,1021.0,504.0,510.0,1022.0,505.0,1.0,1.0,4.0
0,510.0,510.0,510.0,509.0,509.0,509.0,509.0,509.0,509.0,509.0,509.0,509.0,509.0,509.0,509.0,509.0,510.0,510.0,510.0,510.0,1022.0,1022.0,1022.0,1021.0,1021.0,1021.0,1021.0,1021.0,1021.0,1021.0,1021.0,1021.0,1021.0,1021.0,1021.0,1021.0,1007.0,1007.0,1007.0,1007.0,505.0,505.0,505.0,504.0,504.0,504.0,504.0,504.0,504.0,504.0,504.0,504.0,504.0,504.0,504.0,545.0,545.0,545.0,545.0,545.0,509.53333333333336,1020.0333333333333,508.53333333333336,509.0,1007.0,504.0,510.0,1007.0,545.0,510.0,1022.0,545.0,1.0,15.0,41.0
0,509.0,509.0,509.0,509.0,509.0,509.0,509.0,510.0,510.0,510.0,510.0,510.0,510.0,510.0,510.0,510.0,510.0,510.0,510.0,509.0,1021.0,1021.0,1021.0,1021.0,1021.0,1021.0,1021.0,1007.0,1007.0,1007.0,1007.0,1007.0,1007.0,1007.0,1007.0,1007.0,1007.0,1007.0,1007.0,863.0,504.0,504.0,504.0,504.0,504.0,504.0,504.0,545.0,545.0,545.0,545.0,545.0,545.0,545.0,545.0,545.0,545.0,545.0,545.0,560.0,509.5,1010.2333333333333,522.3666666666667,509.0,863.0,504.0,509.0,863.0,560.0,510.0,1021.0,560.0,1.0,159.0,56.0
0,510.0,509.0,509.0,509.0,509.0,509.0,509.0,509.0,509.0,509.0,509.0,509.0,509.0,509.0,509.0,510.0,510.0,510.0,510.0,510.0,1007.0,863.0,863.0,863.0,863.0,863.0,863.0,863.0,863.0,863.0,863.0,863.0,863.0,863.0,863.0,633.0,633.0,633.0,633.0,633.0,545.0,560.0,560.0,560.0,560.0,560.0,560.0,560.0,560.0,560.0,560.0,560.0,560.0,560.0,560.0,560.0,560.0,560.0,560.0,560.0,509.5,885.1333333333333,554.5,509.0,633.0,545.0,510.0,633.0,560.0,510.0,1007.0,560.0,1.0,374.0,15.0
0,510.0,510.0,510.0,510.0,510.0,510.0,510.0,510.0,510.0,510.0,508.0,508.0,508.0,508.0,508.0,508.0,508.0,508.0,508.0,508.0,633.0,633.0,633.0,633.0,633.0,633.0,633.0,633.0,633.0,633.0,374.0,374.0,374.0,374.0,374.0,374.0,374.0,374.0,374.0,374.0,560.0,560.0,560.0,560.0,560.0,560.0,560.0,560.0,560.0,560.0,572.0,572.0,572.0,572.0,572.0,572.0,572.0,572.0,572.0,572.0,509.2,625.2666666666667,563.2,508.0,374.0,560.0,508.0,374.0,572.0,510.0,633.0,572.0,2.0,489.0,12.0
0,508.0,508.0,508.0,508.0,508.0,508.0,508.0,508.0,508.0,508.0,508.0,508.0,508.0,508.0,508.0,508.0,508.0,508.0,508.0,508.0,374.0,374.0,374.0,374.0,374.0,374.0,374.0,374.0,374.0,78.0,78.0,78.0,78.0,78.0,78.0,78.0,78.0,78.0,78.0,78.0,572.0,572.0,572.0,572.0,572.0,572.0,572.0,572.0,572.0,544.0,544.0,544.0,544.0,544.0,544.0,544.0,544.0,544.0,544.0,544.0,508.1333333333333,282.73333333333335,560.9333333333333,508.0,78.0,544.0,508.0,78.0,544.0,508.0,374.0,572.0,2.0,555.0,28.0
0,508.0,508.0,508.0,508.0,508.0,508.0,508.0,508.0,508.0,508.0,508.0,508.0,508.0,508.0,508.0,508.0,508.0,508.0,508.0,508.0,78.0,78.0,78.0,78.0,78.0,78.0,78.0,78.0,78.0,78.0,78.0,19.0,19.0,19.0,19.0,19.0,19.0,19.0,19.0,19.0,544.0,544.0,544.0,544.0,544.0,544.0,544.0,544.0,544.0,544.0,544.0,550.0,550.0,550.0,550.0,550.0,550.0,550.0,550.0,550.0,508.0,64.23333333333333,545.4,508.0,19.0,544.0,508.0,19.0,550.0,508.0,78.0,550.0,0.0,59.0,6.0
0,510.0,510.0,510.0,510.0,510.0,510.0,510.0,510.0,510.0,510.0,510.0,511.0,511.0,511.0,511.0,511.0,511.0,511.0,511.0,511.0,0.0,0.0,0.0,0.0,0.0,0.0,0.0,0.0,0.0,0.0,0.0,12.0,12.0,12.0,12.0,12.0,12.0,12.0,12.0,12.0,507.0,507.0,507.0,507.0,507.0,507.0,507.0,507.0,507.0,507.0,507.0,494.0,494.0,494.0,494.0,494.0,494.0,494.0,494.0,494.0,510.5,6.0,517.8333333333334,510.0,0.0,494.0,511.0,12.0,494.0,511.0,12.0,507.0,1.0,12.0,52.0
0,511.0,511.0,511.0,511.0,511.0,511.0,511.0,511.0,506.0,506.0,506.0,506.0,506.0,506.0,506.0,506.0,506.0,506.0,506.0,506.0,12.0,12.0,12.0,12.0,12.0,12.0,12.0,12.0,39.0,39.0,39.0,39.0,39.0,39.0,39.0,39.0,39.0,39.0,39.0,39.0,494.0,494.0,494.0,494.0,494.0,494.0,494.0,494.0,469.0,469.0,469.0,469.0,469.0,469.0,469.0,469.0,469.0,469.0,469.0,469.0,509.3333333333333,21.0,485.6666666666667,506.0,12.0,469.0,506.0,39.0,469.0,511.0,39.0,494.0,5.0,27.0,25.0
0,506.0,506.0,506.0,506.0,506.0,506.0,503.0,503.0,503.0,503.0,503.0,503.0,503.0,503.0,507.0,507.0,507.0,507.0,507.0,507.0,39.0,39.0,39.0,39.0,39.0,39.0,3.0,3.0,3.0,3.0,3.0,3.0,3.0,3.0,52.0,52.0,52.0,52.0,52.0,52.0,469.0,469.0,469.0,469.0,469.0,469.0,307.0,307.0,307.0,307.0,307.0,307.0,307.0,307.0,312.0,312.0,312.0,312.0,312.0,312.0,505.4,32.0,394.4,503.0,3.0,307.0,507.0,52.0,312.0,507.0,52.0,469.0,4.0,49.0,162.0
0,503.0,503.0,503.0,507.0,507.0,507.0,507.0,507.0,507.0,507.0,507.0,507.0,507.0,507.0,507.0,507.0,507.0,507.0,507.0,507.0,3.0,3.0,3.0,52.0,52.0,52.0,52.0,52.0,52.0,52.0,52.0,52.0,52.0,52.0,52.0,116.0,116.0,116.0,116.0,116.0,307.0,307.0,307.0,312.0,312.0,312.0,312.0,312.0,312.0,312.0,312.0,312.0,312.0,312.0,312.0,395.0,395.0,395.0,395.0,395.0,505.76666666666665,47.43333333333333,350.6666666666667,503.0,3.0,307.0,507.0,116.0,395.0,507.0,116.0,395.0,4.0,113.0,162.0
0,507.0,507.0,507.0,507.0,507.0,507.0,507.0,507.0,507.0,506.0,506.0,506.0,506.0,506.0,506.0,506.0,506.0,506.0,506.0,506.0,116.0,116.0,116.0,116.0,116.0,116.0,116.0,116.0,116.0,217.0,217.0,217.0,217.0,217.0,217.0,217.0,217.0,217.0,217.0,217.0,395.0,395.0,395.0,395.0,395.0,395.0,395.0,395.0,395.0,424.0,424.0,424.0,424.0,424.0,424.0,424.0,424.0,424.0,424.0,424.0,506.6333333333333,140.23333333333332,389.03333333333336,506.0,116.0,395.0,506.0,217.0,424.0,507.0,217.0,424.0,1.0,165.0,112.0
0,506.0,506.0,506.0,506.0,506.0,508.0,508.0,508.0,508.0,508.0,508.0,508.0,508.0,509.0,509.0,509.0,509.0,509.0,509.0,509.0,217.0,217.0,217.0,217.0,217.0,274.0,274.0,274.0,274.0,274.0,274.0,274.0,274.0,253.0,253.0,253.0,253.0,253.0,253.0,253.0,424.0,424.0,424.0,424.0,424.0,477.0,477.0,477.0,477.0,477.0,477.0,477.0,477.0,495.0,495.0,495.0,495.0,495.0,495.0,495.0,506.96666666666664,233.63333333333333,454.7,506.0,217.0,424.0,509.0,253.0,495.0,509.0,274.0,495.0,3.0,158.0,100.0
0,509.0,509.0,509.0,509.0,509.0,509.0,509.0,509.0,509.0,509.0,509.0,509.0,509.0,509.0,509.0,509.0,509.0,509.0,509.0,509.0,253.0,253.0,253.0,253.0,253.0,253.0,253.0,253.0,270.0,270.0,270.0,270.0,270.0,270.0,270.0,270.0,270.0,270.0,270.0,270.0,495.0,495.0,495.0,495.0,495.0,495.0,495.0,495.0,488.0,488.0,488.0,488.0,488.0,488.0,488.0,488.0,488.0,488.0,488.0,488.0,508.9,260.76666666666665,490.8666666666667,509.0,253.0,488.0,509.0,270.0,488.0,509.0,270.0,495.0,1.0,21.0,18.0
0,509.0,509.0,509.0,509.0,509.0,509.0,509.0,509.0,509.0,513.0,513.0,513.0,513.0,513.0,513.0,513.0,513.0,513.0,513.0,512.0,270.0,270.0,270.0,270.0,270.0,270.0,270.0,270.0,270.0,311.0,311.0,311.0,311.0,311.0,311.0,311.0,311.0,311.0,311.0,346.0,488.0,488.0,488.0,488.0,488.0,488.0,488.0,488.0,488.0,506.0,506.0,506.0,506.0,506.0,506.0,506.0,506.0,506.0,506.0,534.0,510.46666666666664,282.76666666666665,495.53333333333336,509.0,270.0,488.0,513.0,311.0,506.0,513.0,311.0,506.0,4.0,58.0,18.0
0,513.0,513.0,513.0,513.0,513.0,513.0,513.0,513.0,513.0,512.0,512.0,512.0,512.0,512.0,512.0,512.0,512.0,513.0,513.0,513.0,311.0,311.0,311.0,311.0,311.0,311.0,311.0,311.0,311.0,346.0,346.0,346.0,346.0,346.0,346.0,346.0,346.0,380.0,380.0,380.0,506.0,506.0,506.0,506.0,506.0,506.0,506.0,506.0,506.0,534.0,534.0,534.0,534.0,534.0,534.0,534.0,534.0,526.0,526.0,526.0,511.8,315.3666666666667,510.6,512.0,311.0,506.0,513.0,380.0,526.0,513.0,380.0,534.0,4.0,110.0,46.0
0,513.0,513.0,513.0,513.0,513.0,512.0,512.0,512.0,512.0,512.0,512.0,512.0,512.0,512.0,512.0,512.0,512.0,512.0,512.0,509.0,380.0,380.0,380.0,380.0,380.0,418.0,418.0,418.0,418.0,418.0,418.0,418.0,418.0,418.0,418.0,418.0,418.0,418.0,418.0,447.0,526.0,526.0,526.0,526.0,526.0,521.0,521.0,521.0,521.0,521.0,521.0,521.0,521.0,521.0,521.0,521.0,521.0,521.0,521.0,536.0,512.2666666666667,388.6666666666667,525.8,512.0,380.0,521.0,512.0,418.0,521.0,513.0,418.0,526.0,1.0,72.0,13.0
0,512.0,509.0,509.0,509.0,509.0,508.0,508.0,508.0,508.0,508.0,508.0,508.0,508.0,508.0,508.0,508.0,508.0,508.0,508.0,508.0,418.0,447.0,447.0,447.0,447.0,466.0,466.0,466.0,466.0,466.0,466.0,466.0,466.0,466.0,466.0,466.0,466.0,466.0,466.0,466.0,521.0,536.0,536.0,536.0,536.0,558.0,558.0,558.0,558.0,558.0,558.0,558.0,558.0,558.0,558.0,558.0,558.0,558.0,558.0,558.0,509.76666666666665,443.6333333333333,539.5333333333333,508.0,418.0,521.0,508.0,466.0,558.0,512.0,466.0,558.0,4.0,48.0,37.0
0,508.0,508.0,508.0,508.0,508.0,508.0,510.0,510.0,510.0,510.0,510.0,510.0,510.0,510.0,510.0,510.0,510.0,510.0,510.0,510.0,466.0,466.0,466.0,466.0,466.0,466.0,478.0,478.0,478.0,478.0,478.0,478.0,478.0,478.0,478.0,478.0,478.0,478.0,478.0,478.0,558.0,558.0,558.0,558.0,558.0,558.0,552.0,552.0,552.0,552.0,552.0,552.0,552.0,552.0,552.0,552.0,552.0,552.0,552.0,552.0,508.8,470.8,555.6,508.0,466.0,552.0,510.0,478.0,552.0,510.0,478.0,558.0,2.0,12.0,6.0
0,510.0,510.0,510.0,510.0,510.0,510.0,510.0,510.0,508.0,508.0,508.0,508.0,510.0,510.0,510.0,510.0,510.0,510.0,510.0,510.0,478.0,478.0,478.0,478.0,478.0,478.0,478.0,478.0,488.0,488.0,488.0,488.0,482.0,482.0,482.0,482.0,482.0,482.0,482.0,482.0,552.0,552.0,552.0,552.0,552.0,552.0,552.0,552.0,575.0,575.0,575.0,575.0,578.0,578.0,578.0,578.0,578.0,578.0,578.0,578.0,509.73333333333335,480.4,562.0,508.0,478.0,552.0,510.0,482.0,578.0,510.0,488.0,578.0,2.0,10.0,26.0
0,510.0,510.0,510.0,510.0,510.0,510.0,510.0,511.0,511.0,511.0,511.0,511.0,511.0,511.0,511.0,511.0,511.0,511.0,511.0,511.0,482.0,482.0,482.0,482.0,482.0,482.0,482.0,475.0,475.0,475.0,475.0,475.0,475.0,475.0,475.0,475.0,475.0,475.0,475.0,475.0,578.0,578.0,578.0,578.0,578.0,578.0,578.0,560.0,560.0,560.0,560.0,560.0,560.0,560.0,560.0,560.0,560.0,560.0,560.0,560.0,510.1666666666667,480.03333333333336,571.1,510.0,475.0,560.0,511.0,475.0,560.0,511.0,482.0,578.0,3.0,13.0,18.0
0,511.0,511.0,511.0,511.0,511.0,511.0,511.0,511.0,511.0,511.0,511.0,511.0,511.0,511.0,507.0,507.0,507.0,507.0,507.0,507.0,475.0,475.0,475.0,475.0,475.0,472.0,472.0,472.0,472.0,472.0,472.0,472.0,472.0,472.0,472.0,472.0,472.0,472.0,472.0,472.0,560.0,560.0,560.0,560.0,560.0,579.0,579.0,579.0,579.0,579.0,579.0,579.0,579.0,579.0,555.0,555.0,555.0,555.0,555.0,555.0,510.2,473.5,564.7,507.0,472.0,555.0,507.0,472.0,555.0,511.0,475.0,579.0,4.0,3.0,24.0
0,507.0,507.0,507.0,507.0,507.0,507.0,507.0,507.0,507.0,507.0,506.0,506.0,506.0,506.0,506.0,506.0,506.0,506.0,506.0,506.0,472.0,472.0,472.0,472.0,472.0,472.0,472.0,472.0,472.0,472.0,475.0,475.0,475.0,475.0,475.0,475.0,475.0,475.0,475.0,475.0,555.0,555.0,555.0,555.0,555.0,555.0,555.0,555.0,555.0,555.0,540.0,540.0,540.0,540.0,540.0,540.0,540.0,540.0,540.0,540.0,507.6333333333333,472.9,556.1,506.0,472.0,540.0,506.0,475.0,540.0,507.0,475.0,555.0,5.0,3.0,39.0
0,507.0,507.0,506.0,506.0,506.0,506.0,506.0,506.0,506.0,506.0,506.0,506.0,506.0,506.0,506.0,505.0,505.0,505.0,505.0,505.0,472.0,472.0,475.0,475.0,475.0,475.0,475.0,475.0,475.0,475.0,475.0,475.0,475.0,475.0,475.0,486.0,486.0,486.0,486.0,486.0,555.0,555.0,540.0,540.0,540.0,540.0,540.0,540.0,540.0,540.0,540.0,540.0,540.0,540.0,540.0,541.0,541.0,541.0,541.0,541.0,506.3,474.9,546.1,505.0,472.0,540.0,505.0,486.0,541.0,507.0,486.0,555.0,2.0,14.0,15.0
0,507.0,507.0,507.0,507.0,507.0,507.0,507.0,507.0,507.0,507.0,507.0,507.0,507.0,507.0,507.0,507.0,507.0,507.0,509.0,509.0,500.0,500.0,500.0,500.0,500.0,500.0,500.0,500.0,500.0,500.0,500.0,500.0,500.0,500.0,500.0,500.0,500.0,500.0,508.0,508.0,524.0,524.0,524.0,524.0,524.0,524.0,524.0,524.0,524.0,524.0,524.0,524.0,524.0,524.0,524.0,524.0,524.0,524.0,521.0,521.0,506.3333333333333,495.3333333333333,529.1,507.0,500.0,524.0,507.0,500.0,524.0,507.0,500.0,524.0,2.0,14.0,17.0
0,509.0,509.0,509.0,509.0,509.0,509.0,509.0,509.0,509.0,509.0,509.0,509.0,509.0,509.0,509.0,509.0,509.0,509.0,509.0,509.0,508.0,508.0,508.0,508.0,508.0,508.0,510.0,510.0,510.0,510.0,510.0,510.0,510.0,510.0,510.0,510.0,510.0,510.0,510.0,510.0,521.0,521.0,521.0,521.0,521.0,521.0,515.0,515.0,515.0,515.0,515.0,515.0,515.0,515.0,515.0,515.0,515.0,515.0,515.0,515.0,508.6666666666667,507.46666666666664,519.1,509.0,508.0,515.0,509.0,510.0,515.0,509.0,510.0,521.0,2.0,10.0,9.0
0,509.0,509.0,509.0,509.0,509.0,509.0,508.0,508.0,508.0,508.0,508.0,508.0,508.0,505.0,505.0,505.0,505.0,505.0,505.0,505.0,510.0,510.0,510.0,510.0,510.0,510.0,504.0,504.0,504.0,504.0,504.0,504.0,504.0,499.0,499.0,499.0,499.0,499.0,499.0,499.0,515.0,515.0,515.0,515.0,515.0,515.0,488.0,488.0,488.0,488.0,488.0,488.0,488.0,486.0,486.0,486.0,486.0,486.0,486.0,486.0,508.1,506.6333333333333,504.26666666666665,505.0,499.0,486.0,505.0,499.0,486.0,509.0,510.0,515.0,4.0,11.0,35.0
0,505.0,505.0,505.0,505.0,505.0,505.0,505.0,505.0,508.0,508.0,508.0,508.0,508.0,508.0,508.0,508.0,508.0,508.0,508.0,508.0,499.0,499.0,499.0,499.0,499.0,499.0,499.0,499.0,503.0,503.0,503.0,503.0,503.0,503.0,503.0,503.0,503.0,503.0,503.0,503.0,486.0,486.0,486.0,486.0,486.0,486.0,486.0,486.0,481.0,481.0,481.0,481.0,481.0,481.0,481.0,481.0,481.0,481.0,481.0,481.0,506.2,500.6,484.0,505.0,499.0,481.0,508.0,503.0,481.0,508.0,503.0,486.0,3.0,5.0,7.0
0,508.0,508.0,508.0,508.0,508.0,508.0,508.0,508.0,508.0,508.0,508.0,508.0,508.0,508.0,509.0,509.0,509.0,509.0,509.0,509.0,503.0,503.0,503.0,503.0,503.0,503.0,503.0,503.0,503.0,503.0,503.0,503.0,503.0,503.0,492.0,492.0,492.0,492.0,492.0,492.0,481.0,481.0,481.0,481.0,481.0,481.0,481.0,481.0,481.0,481.0,481.0,481.0,481.0,481.0,476.0,476.0,476.0,476.0,476.0,476.0,507.26666666666665,501.2,482.0,508.0,492.0,476.0,509.0,492.0,476.0,509.0,503.0,481.0,4.0,11.0,10.0
0,508.0,508.0,508.0,508.0,509.0,509.0,509.0,509.0,509.0,509.0,509.0,509.0,509.0,509.0,509.0,510.0,510.0,510.0,510.0,510.0,503.0,503.0,503.0,503.0,492.0,492.0,492.0,492.0,492.0,492.0,492.0,492.0,492.0,492.0,492.0,492.0,492.0,492.0,492.0,492.0,481.0,481.0,481.0,481.0,476.0,476.0,476.0,476.0,476.0,476.0,476.0,476.0,476.0,476.0,476.0,456.0,456.0,456.0,456.0,456.0,508.6666666666667,497.1333333333333,475.6666666666667,508.0,492.0,456.0,510.0,492.0,456.0,510.0,503.0,481.0,2.0,11.0,25.0
0,509.0,509.0,509.0,509.0,510.0,510.0,510.0,510.0,510.0,510.0,510.0,510.0,510.0,510.0,510.0,510.0,511.0,511.0,511.0,511.0,492.0,492.0,492.0,492.0,492.0,492.0,492.0,492.0,492.0,492.0,492.0,492.0,492.0,492.0,492.0,492.0,494.0,494.0,494.0,494.0,476.0,476.0,476.0,476.0,456.0,456.0,456.0,456.0,456.0,456.0,456.0,456.0,456.0,456.0,456.0,456.0,473.0,473.0,473.0,473.0,509.43333333333334,493.1666666666667,467.06666666666666,509.0,492.0,456.0,511.0,494.0,473.0,511.0,494.0,476.0,3.0,11.0,25.0
0,511.0,511.0,511.0,511.0,511.0,511.0,511.0,511.0,511.0,511.0,511.0,511.0,512.0,512.0,512.0,512.0,512.0,512.0,512.0,512.0,494.0,494.0,494.0,494.0,494.0,494.0,494.0,494.0,494.0,494.0,494.0,494.0,501.0,501.0,501.0,501.0,501.0,501.0,501.0,501.0,473.0,473.0,473.0,473.0,473.0,473.0,473.0,473.0,473.0,473.0,473.0,473.0,477.0,477.0,477.0,477.0,477.0,477.0,477.0,477.0,511.06666666666666,495.3,471.1,511.0,494.0,473.0,512.0,501.0,477.0,512.0,501.0,477.0,2.0,9.0,21.0
0,512.0,512.0,512.0,512.0,512.0,512.0,512.0,512.0,512.0,512.0,512.0,512.0,512.0,512.0,512.0,512.0,512.0,512.0,510.0,510.0,501.0,501.0,501.0,501.0,501.0,501.0,501.0,501.0,501.0,501.0,501.0,501.0,501.0,501.0,501.0,501.0,501.0,501.0,501.0,501.0,477.0,477.0,477.0,477.0,477.0,477.0,477.0,477.0,477.0,477.0,477.0,477.0,477.0,477.0,477.0,477.0,477.0,477.0,500.0,500.0,511.6333333333333,498.9,476.56666666666666,510.0,501.0,477.0,512.0,501.0,477.0,512.0,501.0,500.0,2.0,7.0,27.0
0,512.0,512.0,512.0,512.0,512.0,512.0,512.0,510.0,510.0,510.0,510.0,510.0,510.0,510.0,510.0,510.0,510.0,510.0,511.0,511.0,501.0,501.0,501.0,501.0,501.0,501.0,501.0,501.0,501.0,501.0,501.0,501.0,501.0,501.0,501.0,501.0,501.0,501.0,507.0,507.0,477.0,477.0,477.0,477.0,477.0,477.0,477.0,500.0,500.0,500.0,500.0,500.0,500.0,500.0,500.0,500.0,500.0,500.0,515.0,515.0,511.1666666666667,501.2,487.46666666666664,510.0,501.0,477.0,511.0,507.0,515.0,512.0,507.0,515.0,2.0,6.0,38.0
0,511.0,511.0,511.0,511.0,511.0,511.0,511.0,511.0,510.0,510.0,510.0,510.0,510.0,510.0,510.0,510.0,510.0,510.0,510.0,510.0,507.0,507.0,507.0,507.0,507.0,507.0,507.0,507.0,512.0,512.0,512.0,512.0,512.0,512.0,512.0,512.0,512.0,512.0,512.0,512.0,515.0,515.0,515.0,515.0,515.0,515.0,515.0,515.0,522.0,522.0,522.0,522.0,522.0,522.0,522.0,522.0,522.0,522.0,522.0,522.0,510.46666666666664,507.8333333333333,515.0666666666667,510.0,507.0,515.0,510.0,512.0,522.0,511.0,512.0,522.0,1.0,11.0,22.0
0,510.0,510.0,510.0,512.0,512.0,510.0,510.0,510.0,510.0,510.0,510.0,510.0,510.0,510.0,510.0,510.0,510.0,510.0,510.0,510.0,512.0,512.0,512.0,520.0,520.0,524.0,524.0,524.0,524.0,524.0,524.0,524.0,524.0,524.0,524.0,524.0,524.0,524.0,524.0,524.0,522.0,522.0,522.0,549.0,549.0,550.0,550.0,550.0,550.0,550.0,550.0,550.0,550.0,550.0,550.0,550.0,550.0,550.0,550.0,550.0,510.2,518.0,536.8333333333334,510.0,512.0,522.0,510.0,524.0,550.0,512.0,524.0,550.0,2.0,12.0,28.0
0,510.0,510.0,510.0,510.0,510.0,510.0,510.0,510.0,510.0,510.0,510.0,510.0,510.0,510.0,510.0,510.0,508.0,508.0,508.0,508.0,524.0,524.0,524.0,524.0,524.0,524.0,524.0,524.0,524.0,524.0,521.0,521.0,521.0,521.0,521.0,521.0,521.0,521.0,521.0,521.0,550.0,550.0,550.0,550.0,550.0,550.0,550.0,550.0,550.0,538.0,538.0,538.0,538.0,538.0,538.0,538.0,524.0,524.0,524.0,524.0,510.06666666666666,523.0666666666667,546.7666666666667,510.0,521.0,538.0,510.0,521.0,538.0,510.0,524.0,550.0,2.0,4.0,12.0
0,510.0,510.0,508.0,508.0,508.0,508.0,508.0,508.0,508.0,508.0,508.0,508.0,508.0,508.0,508.0,508.0,508.0,508.0,508.0,508.0,521.0,521.0,521.0,521.0,521.0,521.0,521.0,521.0,521.0,521.0,521.0,521.0,521.0,521.0,521.0,521.0,521.0,521.0,521.0,521.0,538.0,524.0,524.0,524.0,524.0,524.0,524.0,524.0,524.0,524.0,524.0,524.0,524.0,524.0,524.0,524.0,524.0,524.0,524.0,524.0,508.8,521.4,531.2,508.0,521.0,524.0,508.0,521.0,524.0,510.0,521.0,538.0,2.0,3.0,26.0
0,508.0,508.0,508.0,508.0,508.0,508.0,508.0,508.0,508.0,508.0,508.0,508.0,508.0,508.0,508.0,507.0,507.0,507.0,507.0,507.0,521.0,521.0,521.0,521.0,521.0,521.0,521.0,521.0,521.0,515.0,515.0,515.0,515.0,515.0,515.0,502.0,502.0,502.0,502.0,502.0,524.0,524.0,524.0,524.0,524.0,524.0,524.0,524.0,524.0,419.0,419.0,419.0,419.0,419.0,419.0,362.0,362.0,362.0,362.0,362.0,507.93333333333334,518.5333333333333,492.2,507.0,502.0,362.0,507.0,502.0,362.0,508.0,521.0,524.0,1.0,19.0,162.0
0,507.0,507.0,507.0,507.0,507.0,507.0,507.0,507.0,507.0,507.0,507.0,507.0,507.0,509.0,509.0,509.0,509.0,509.0,509.0,509.0,502.0,502.0,502.0,502.0,502.0,502.0,502.0,502.0,502.0,502.0,502.0,502.0,502.0,502.0,502.0,502.0,502.0,502.0,502.0,502.0,362.0,362.0,362.0,362.0,362.0,362.0,362.0,362.0,362.0,362.0,362.0,362.0,362.0,267.0,267.0,267.0,267.0,267.0,267.0,267.0,507.6333333333333,505.23333333333335,359.8,507.0,502.0,267.0,509.0,502.0,267.0,509.0,502.0,362.0,2.0,19.0,257.0
0,509.0,509.0,509.0,509.0,509.0,509.0,509.0,509.0,509.0,509.0,509.0,509.0,509.0,509.0,509.0,509.0,509.0,509.0,509.0,509.0,502.0,502.0,502.0,502.0,502.0,502.0,502.0,502.0,502.0,502.0,502.0,502.0,502.0,502.0,502.0,502.0,502.0,502.0,499.0,499.0,267.0,267.0,267.0,267.0,267.0,267.0,267.0,267.0,267.0,267.0,267.0,267.0,267.0,267.0,267.0,267.0,267.0,267.0,365.0,365.0,508.53333333333336,502.0,289.1666666666667,509.0,502.0,267.0,509.0,502.0,267.0,509.0,502.0,267.0,2.0,0.0,95.0
0,509.0,509.0,509.0,509.0,509.0,509.0,509.0,509.0,509.0,509.0,509.0,509.0,509.0,509.0,509.0,509.0,509.0,509.0,509.0,509.0,502.0,502.0,499.0,499.0,499.0,499.0,499.0,499.0,499.0,499.0,499.0,499.0,499.0,499.0,499.0,499.0,504.0,504.0,504.0,504.0,267.0,267.0,365.0,365.0,365.0,365.0,365.0,365.0,365.0,365.0,365.0,365.0,365.0,365.0,365.0,365.0,464.0,464.0,464.0,464.0,509.0,500.7,335.7,509.0,499.0,267.0,509.0,504.0,464.0,509.0,504.0,464.0,0.0,5.0,197.0
0,509.0,509.0,509.0,509.0,509.0,509.0,509.0,508.0,508.0,508.0,508.0,508.0,508.0,508.0,508.0,508.0,508.0,508.0,508.0,508.0,504.0,504.0,504.0,504.0,504.0,504.0,504.0,501.0,501.0,501.0,501.0,501.0,501.0,501.0,501.0,501.0,501.0,501.0,501.0,501.0,464.0,464.0,464.0,464.0,464.0,464.0,464.0,488.0,488.0,488.0,488.0,488.0,488.0,488.0,488.0,488.0,488.0,488.0,488.0,488.0,508.56666666666666,502.2,464.5,508.0,501.0,464.0,508.0,501.0,488.0,509.0,504.0,488.0,1.0,5.0,123.0
0,508.0,508.0,508.0,508.0,508.0,508.0,508.0,508.0,508.0,508.0,506.0,506.0,506.0,506.0,506.0,506.0,506.0,506.0,506.0,506.0,501.0,501.0,501.0,501.0,501.0,501.0,501.0,501.0,501.0,501.0,501.0,501.0,501.0,501.0,501.0,501.0,501.0,501.0,501.0,501.0,488.0,488.0,488.0,488.0,488.0,488.0,488.0,488.0,488.0,488.0,532.0,532.0,532.0,532.0,532.0,532.0,532.0,532.0,532.0,532.0,507.53333333333336,501.4,498.0,506.0,501.0,488.0,506.0,501.0,532.0,508.0,501.0,532.0,3.0,3.0,68.0
0,506.0,506.0,506.0,506.0,506.0,506.0,506.0,506.0,506.0,506.0,506.0,509.0,509.0,508.0,508.0,508.0,508.0,508.0,508.0,508.0,501.0,501.0,501.0,501.0,501.0,501.0,501.0,501.0,501.0,501.0,501.0,507.0,507.0,508.0,508.0,508.0,508.0,508.0,508.0,508.0,532.0,532.0,532.0,532.0,532.0,532.0,532.0,532.0,532.0,532.0,532.0,540.0,540.0,581.0,581.0,581.0,581.0,581.0,581.0,581.0,507.0,502.8,533.5333333333333,506.0,501.0,532.0,508.0,508.0,581.0,509.0,508.0,581.0,3.0,7.0,93.0
0,508.0,508.0,508.0,508.0,508.0,508.0,508.0,508.0,508.0,508.0,508.0,508.0,508.0,508.0,509.0,509.0,509.0,509.0,509.0,509.0,508.0,508.0,508.0,508.0,508.0,508.0,508.0,508.0,508.0,508.0,508.0,508.0,508.0,508.0,504.0,504.0,504.0,504.0,504.0,504.0,581.0,581.0,581.0,581.0,581.0,581.0,581.0,581.0,581.0,581.0,581.0,581.0,581.0,581.0,598.0,598.0,598.0,598.0,598.0,598.0,507.8333333333333,505.8666666666667,571.3,508.0,504.0,581.0,509.0,504.0,598.0,509.0,508.0,598.0,3.0,7.0,66.0
0,509.0,509.0,509.0,509.0,509.0,509.0,509.0,509.0,509.0,509.0,509.0,509.0,509.0,509.0,506.0,506.0,506.0,506.0,506.0,506.0,504.0,504.0,504.0,504.0,504.0,504.0,504.0,504.0,504.0,504.0,504.0,504.0,504.0,504.0,512.0,512.0,512.0,512.0,512.0,512.0,598.0,598.0,598.0,598.0,598.0,598.0,598.0,598.0,598.0,598.0,598.0,598.0,598.0,598.0,600.0,600.0,600.0,600.0,600.0,600.0,508.3,506.26666666666665,593.1666666666666,506.0,504.0,598.0,506.0,512.0,600.0,509.0,512.0,600.0,3.0,8.0,19.0
0,506.0,506.0,506.0,506.0,506.0,506.0,507.0,507.0,507.0,507.0,507.0,507.0,507.0,507.0,507.0,507.0,507.0,507.0,508.0,508.0,512.0,512.0,512.0,512.0,512.0,512.0,516.0,516.0,516.0,516.0,516.0,516.0,516.0,516.0,516.0,516.0,516.0,516.0,771.0,771.0,600.0,600.0,600.0,600.0,600.0,600.0,611.0,611.0,611.0,611.0,611.0,611.0,611.0,611.0,611.0,611.0,611.0,611.0,572.0,572.0,506.8333333333333,512.6666666666666,604.5,506.0,512.0,600.0,507.0,516.0,611.0,507.0,516.0,611.0,3.0,12.0,13.0
0,507.0,507.0,507.0,507.0,507.0,507.0,507.0,507.0,508.0,508.0,508.0,508.0,508.0,508.0,508.0,509.0,509.0,509.0,509.0,509.0,516.0,516.0,516.0,516.0,516.0,516.0,516.0,516.0,771.0,771.0,771.0,771.0,771.0,771.0,771.0,836.0,836.0,836.0,836.0,836.0,611.0,611.0,611.0,611.0,611.0,611.0,611.0,611.0,572.0,572.0,572.0,572.0,572.0,572.0,572.0,540.0,540.0,540.0,540.0,540.0,507.3,615.3333333333334,591.6666666666666,507.0,516.0,540.0,509.0,836.0,540.0,509.0,836.0,611.0,3.0,324.0,71.0
0,508.0,509.0,509.0,509.0,509.0,509.0,509.0,509.0,509.0,509.0,509.0,509.0,509.0,509.0,509.0,509.0,509.0,509.0,509.0,509.0,771.0,836.0,836.0,836.0,836.0,836.0,836.0,836.0,836.0,836.0,836.0,836.0,836.0,836.0,836.0,836.0,836.0,836.0,932.0,932.0,572.0,540.0,540.0,540.0,540.0,540.0,540.0,540.0,540.0,540.0,540.0,540.0,540.0,540.0,540.0,540.0,540.0,540.0,480.0,480.0,508.53333333333336,786.6666666666666,555.6333333333333,508.0,771.0,540.0,509.0,836.0,540.0,509.0,836.0,572.0,2.0,320.0,71.0
0,509.0,509.0,509.0,509.0,509.0,509.0,509.0,509.0,509.0,509.0,509.0,509.0,509.0,509.0,509.0,509.0,510.0,510.0,510.0,510.0,836.0,836.0,836.0,836.0,932.0,932.0,932.0,932.0,932.0,932.0,932.0,932.0,932.0,932.0,932.0,932.0,1010.0,1010.0,1010.0,1010.0,540.0,540.0,540.0,540.0,480.0,480.0,480.0,480.0,480.0,480.0,480.0,480.0,480.0,480.0,480.0,480.0,469.0,469.0,469.0,469.0,509.1,895.0,506.9,509.0,836.0,469.0,510.0,1010.0,469.0,510.0,1010.0,540.0,1.0,174.0,71.0
0,510.0,510.0,510.0,510.0,510.0,510.0,510.0,510.0,513.0,513.0,513.0,513.0,513.0,513.0,513.0,513.0,513.0,513.0,513.0,513.0,1010.0,1010.0,1010.0,1010.0,1010.0,1010.0,1010.0,1010.0,1021.0,1021.0,1021.0,1021.0,1021.0,1021.0,1021.0,1021.0,1021.0,1021.0,1021.0,1021.0,469.0,469.0,469.0,469.0,469.0,469.0,469.0,469.0,463.0,463.0,463.0,463.0,463.0,463.0,463.0,463.0,463.0,463.0,463.0,463.0,511.03333333333336,1001.4,468.43333333333334,510.0,1010.0,463.0,513.0,1021.0,463.0,513.0,1021.0,469.0,4.0,89.0,17.0
0,513.0,513.0,513.0,513.0,513.0,513.0,513.0,513.0,513.0,513.0,512.0,512.0,512.0,512.0,512.0,512.0,512.0,512.0,512.0,512.0,1021.0,1021.0,1021.0,1021.0,1021.0,1021.0,1021.0,1021.0,1021.0,1021.0,1017.0,1017.0,1017.0,1017.0,1017.0,1017.0,1017.0,1017.0,1017.0,1017.0,463.0,463.0,463.0,463.0,463.0,463.0,463.0,463.0,463.0,463.0,470.0,470.0,470.0,470.0,470.0,470.0,470.0,470.0,470.0,470.0,512.7333333333333,1019.9333333333333,464.8666666666667,512.0,1017.0,463.0,512.0,1017.0,470.0,513.0,1021.0,470.0,1.0,4.0,7.0
0,512.0,512.0,512.0,512.0,512.0,512.0,512.0,512.0,512.0,512.0,512.0,512.0,512.0,512.0,512.0,512.0,512.0,512.0,512.0,513.0,1017.0,1017.0,1017.0,1017.0,1017.0,1017.0,1017.0,1017.0,1017.0,1017.0,1017.0,1017.0,1017.0,1017.0,1017.0,1017.0,1017.0,1017.0,1017.0,1019.0,470.0,470.0,470.0,470.0,470.0,470.0,470.0,470.0,470.0,470.0,470.0,470.0,470.0,470.0,470.0,470.0,470.0,470.0,470.0,500.0,512.1666666666666,1017.6,470.06666666666666,512.0,1017.0,470.0,513.0,1019.0,500.0,513.0,1019.0,500.0,1.0,4.0,37.0
0,512.0,512.0,512.0,512.0,512.0,512.0,512.0,512.0,512.0,512.0,512.0,513.0,513.0,513.0,513.0,513.0,513.0,513.0,515.0,515.0,1017.0,1017.0,1017.0,1017.0,1017.0,1017.0,1017.0,1017.0,1017.0,1017.0,1017.0,1019.0,1019.0,1019.0,1019.0,1019.0,1019.0,1019.0,468.0,468.0,470.0,470.0,470.0,470.0,470.0,470.0,470.0,470.0,470.0,470.0,470.0,500.0,500.0,500.0,500.0,500.0,500.0,500.0,509.0,509.0,512.3666666666667,999.2333333333333,479.3,512.0,468.0,470.0,515.0,468.0,509.0,515.0,1019.0,509.0,3.0,551.0,39.0
0,512.0,513.0,513.0,513.0,513.0,513.0,513.0,513.0,515.0,515.0,515.0,515.0,515.0,515.0,515.0,515.0,515.0,515.0,515.0,515.0,1017.0,1019.0,1019.0,1019.0,1019.0,1019.0,1019.0,1019.0,468.0,468.0,468.0,468.0,468.0,468.0,468.0,468.0,468.0,468.0,468.0,468.0,470.0,500.0,500.0,500.0,500.0,500.0,500.0,500.0,509.0,509.0,509.0,509.0,509.0,509.0,509.0,509.0,509.0,509.0,509.0,509.0,513.3666666666667,816.2333333333333,492.3,512.0,468.0,470.0,515.0,468.0,509.0,515.0,1019.0,509.0,3.0,551.0,39.0
0,515.0,515.0,515.0,515.0,515.0,515.0,515.0,515.0,515.0,515.0,515.0,508.0,508.0,508.0,508.0,508.0,508.0,507.0,507.0,507.0,468.0,468.0,468.0,468.0,468.0,468.0,468.0,468.0,468.0,468.0,468.0,910.0,910.0,910.0,910.0,910.0,910.0,844.0,844.0,844.0,509.0,509.0,509.0,509.0,509.0,509.0,509.0,509.0,509.0,509.0,509.0,551.0,551.0,551.0,551.0,551.0,551.0,558.0,558.0,558.0,512.4333333333333,746.7,516.9666666666667,507.0,468.0,509.0,507.0,844.0,558.0,515.0,910.0,558.0,8.0,551.0,88.0
0,508.0,508.0,508.0,508.0,508.0,507.0,507.0,507.0,507.0,507.0,507.0,508.0,508.0,508.0,508.0,508.0,508.0,508.0,508.0,508.0,910.0,910.0,910.0,910.0,910.0,844.0,844.0,844.0,844.0,844.0,844.0,653.0,653.0,653.0,653.0,653.0,653.0,653.0,653.0,653.0,551.0,551.0,551.0,551.0,551.0,558.0,558.0,558.0,558.0,558.0,558.0,548.0,548.0,548.0,548.0,548.0,548.0,548.0,548.0,548.0,510.1,687.3,537.9333333333333,507.0,653.0,548.0,508.0,653.0,548.0,508.0,910.0,558.0,8.0,442.0,49.0
0,508.0,508.0,508.0,508.0,508.0,508.0,508.0,508.0,508.0,508.0,508.0,508.0,508.0,508.0,508.0,506.0,506.0,506.0,506.0,506.0,653.0,653.0,653.0,653.0,653.0,653.0,653.0,653.0,653.0,653.0,653.0,653.0,653.0,653.0,653.0,531.0,531.0,531.0,531.0,531.0,548.0,548.0,548.0,548.0,548.0,548.0,548.0,548.0,548.0,548.0,548.0,548.0,548.0,548.0,548.0,584.0,584.0,584.0,584.0,584.0,507.56666666666666,693.9333333333333,554.0333333333333,506.0,531.0,548.0,506.0,531.0,584.0,508.0,653.0,584.0,2.0,379.0,36.0
0,508.0,508.0,508.0,506.0,506.0,506.0,506.0,506.0,506.0,506.0,506.0,506.0,506.0,506.0,506.0,506.0,508.0,508.0,508.0,508.0,653.0,653.0,653.0,531.0,531.0,531.0,531.0,531.0,531.0,531.0,531.0,531.0,531.0,531.0,531.0,531.0,396.0,396.0,396.0,396.0,548.0,548.0,548.0,584.0,584.0,584.0,584.0,584.0,584.0,584.0,584.0,584.0,584.0,584.0,584.0,584.0,576.0,576.0,576.0,576.0,506.93333333333334,579.3666666666667,568.1333333333333,506.0,396.0,548.0,508.0,396.0,576.0,508.0,653.0,584.0,2.0,257.0,36.0
0,508.0,508.0,508.0,508.0,508.0,508.0,508.0,508.0,508.0,508.0,508.0,508.0,508.0,508.0,508.0,508.0,508.0,508.0,508.0,508.0,396.0,396.0,396.0,396.0,396.0,396.0,396.0,396.0,243.0,243.0,243.0,243.0,243.0,243.0,243.0,243.0,243.0,243.0,243.0,243.0,576.0,576.0,576.0,576.0,576.0,576.0,576.0,576.0,581.0,581.0,581.0,581.0,581.0,581.0,581.0,581.0,581.0,581.0,581.0,581.0,507.6,366.9,579.4333333333333,508.0,243.0,576.0,508.0,243.0,581.0,508.0,396.0,581.0,2.0,288.0,8.0
0,508.0,508.0,508.0,508.0,509.0,509.0,509.0,509.0,509.0,509.0,509.0,509.0,509.0,509.0,509.0,509.0,509.0,509.0,509.0,509.0,142.0,142.0,142.0,142.0,141.0,141.0,141.0,141.0,141.0,141.0,141.0,141.0,141.0,141.0,141.0,141.0,141.0,141.0,141.0,141.0,552.0,552.0,552.0,552.0,517.0,517.0,517.0,517.0,517.0,517.0,517.0,517.0,517.0,517.0,517.0,517.0,517.0,517.0,517.0,517.0,508.5,165.06666666666666,541.2666666666667,508.0,141.0,517.0,509.0,141.0,517.0,509.0,142.0,552.0,1.0,102.0,64.0
0,509.0,509.0,509.0,509.0,509.0,509.0,509.0,509.0,509.0,509.0,509.0,509.0,509.0,509.0,507.0,507.0,507.0,507.0,507.0,507.0,131.0,131.0,131.0,131.0,131.0,131.0,131.0,131.0,131.0,131.0,131.0,131.0,131.0,131.0,152.0,152.0,152.0,152.0,152.0,152.0,493.0,493.0,493.0,493.0,493.0,493.0,493.0,493.0,493.0,493.0,493.0,493.0,493.0,493.0,468.0,468.0,468.0,468.0,468.0,468.0,508.6333333333333,132.2,492.26666666666665,507.0,131.0,468.0,507.0,152.0,468.0,509.0,152.0,493.0,2.0,37.0,51.0
0,509.0,509.0,509.0,507.0,507.0,507.0,507.0,507.0,507.0,507.0,507.0,507.0,507.0,507.0,507.0,507.0,505.0,505.0,505.0,505.0,131.0,131.0,131.0,152.0,152.0,152.0,152.0,152.0,152.0,152.0,152.0,152.0,152.0,152.0,152.0,152.0,196.0,196.0,196.0,196.0,493.0,493.0,493.0,468.0,468.0,468.0,468.0,468.0,468.0,468.0,468.0,468.0,468.0,468.0,468.0,468.0,476.0,476.0,476.0,476.0,507.6666666666667,147.3,479.6333333333333,505.0,131.0,468.0,505.0,196.0,476.0,509.0,196.0,493.0,4.0,65.0,25.0
0,505.0,505.0,509.0,509.0,509.0,509.0,509.0,509.0,509.0,509.0,509.0,509.0,509.0,509.0,509.0,509.0,509.0,509.0,509.0,509.0,196.0,196.0,286.0,286.0,286.0,286.0,286.0,286.0,286.0,286.0,286.0,286.0,286.0,286.0,286.0,286.0,286.0,286.0,286.0,286.0,476.0,476.0,478.0,478.0,478.0,478.0,478.0,478.0,478.0,478.0,478.0,478.0,478.0,478.0,478.0,478.0,478.0,478.0,478.0,478.0,507.4,250.0,477.2,505.0,196.0,476.0,509.0,286.0,478.0,509.0,286.0,478.0,4.0,90.0,2.0
0,509.0,509.0,507.0,507.0,507.0,507.0,507.0,507.0,507.0,508.0,508.0,508.0,508.0,508.0,508.0,508.0,508.0,508.0,508.0,508.0,286.0,286.0,608.0,608.0,608.0,608.0,608.0,608.0,608.0,814.0,814.0,814.0,814.0,814.0,814.0,814.0,814.0,814.0,814.0,814.0,478.0,478.0,497.0,497.0,497.0,497.0,497.0,497.0,497.0,511.0,511.0,511.0,511.0,511.0,511.0,511.0,511.0,511.0,511.0,511.0,508.2,537.1333333333333,493.43333333333334,507.0,286.0,478.0,508.0,814.0,511.0,509.0,814.0,511.0,2.0,528.0,33.0
0,508.0,508.0,508.0,508.0,508.0,508.0,510.0,510.0,510.0,510.0,510.0,510.0,510.0,510.0,510.0,510.0,510.0,510.0,510.0,510.0,814.0,814.0,814.0,814.0,814.0,814.0,399.0,399.0,399.0,399.0,399.0,399.0,399.0,399.0,399.0,399.0,399.0,399.0,399.0,399.0,511.0,511.0,511.0,511.0,511.0,511.0,465.0,465.0,465.0,465.0,465.0,465.0,465.0,465.0,465.0,465.0,465.0,465.0,465.0,465.0,508.8666666666667,634.1666666666666,491.06666666666666,508.0,399.0,465.0,510.0,399.0,465.0,510.0,814.0,511.0,2.0,415.0,46.0
0,510.0,510.0,510.0,510.0,510.0,510.0,510.0,510.0,510.0,510.0,510.0,510.0,510.0,510.0,510.0,510.0,510.0,513.0,513.0,513.0,399.0,399.0,399.0,399.0,399.0,399.0,399.0,399.0,399.0,399.0,399.0,388.0,388.0,388.0,388.0,388.0,388.0,435.0,435.0,435.0,465.0,465.0,465.0,465.0,465.0,465.0,465.0,465.0,465.0,465.0,465.0,459.0,459.0,459.0,459.0,459.0,459.0,470.0,470.0,470.0,509.8,482.2,473.3333333333333,510.0,388.0,459.0,513.0,435.0,470.0,513.0,435.0,470.0,5.0,426.0,52.0
0,513.0,513.0,513.0,513.0,513.0,513.0,513.0,513.0,514.0,514.0,514.0,514.0,514.0,514.0,514.0,514.0,514.0,514.0,514.0,514.0,435.0,435.0,435.0,435.0,435.0,435.0,435.0,435.0,464.0,464.0,464.0,464.0,464.0,464.0,464.0,464.0,464.0,464.0,464.0,464.0,470.0,470.0,470.0,470.0,470.0,470.0,470.0,470.0,436.0,436.0,436.0,436.0,436.0,436.0,436.0,436.0,436.0,436.0,436.0,436.0,512.5,433.6,453.7,513.0,435.0,436.0,514.0,464.0,436.0,514.0,464.0,470.0,4.0,76.0,34.0
0,514.0,514.0,514.0,514.0,513.0,513.0,513.0,513.0,513.0,513.0,513.0,513.0,513.0,513.0,513.0,513.0,513.0,513.0,513.0,513.0,464.0,464.0,464.0,464.0,473.0,473.0,473.0,473.0,473.0,473.0,473.0,473.0,473.0,473.0,473.0,473.0,473.0,473.0,473.0,473.0,436.0,436.0,436.0,436.0,448.0,448.0,448.0,448.0,448.0,448.0,448.0,448.0,448.0,448.0,448.0,448.0,448.0,448.0,448.0,448.0,513.5,468.5,442.0,513.0,464.0,436.0,513.0,473.0,448.0,514.0,473.0,448.0,1.0,9.0,12.0
0,513.0,513.0,513.0,513.0,513.0,513.0,513.0,513.0,513.0,513.0,513.0,512.0,512.0,512.0,512.0,512.0,512.0,512.0,512.0,512.0,473.0,473.0,473.0,473.0,473.0,473.0,473.0,473.0,473.0,473.0,473.0,870.0,870.0,870.0,870.0,1022.0,1022.0,1022.0,1022.0,1022.0,448.0,448.0,448.0,448.0,448.0,448.0,448.0,448.0,448.0,448.0,448.0,290.0,290.0,290.0,290.0,10.0,10.0,10.0,10.0,10.0,512.7666666666667,593.7666666666667,377.46666666666664,512.0,473.0,10.0,512.0,1022.0,10.0,513.0,1022.0,448.0,2.0,558.0,438.0
0,512.0,512.0,512.0,512.0,512.0,512.0,512.0,512.0,512.0,512.0,512.0,512.0,512.0,512.0,512.0,512.0,509.0,509.0,509.0,509.0,1022.0,1022.0,1022.0,1022.0,1022.0,1022.0,1022.0,1022.0,1022.0,1022.0,1022.0,1022.0,1022.0,1022.0,1022.0,1022.0,1008.0,1008.0,1008.0,1008.0,10.0,10.0,10.0,10.0,10.0,10.0,10.0,10.0,10.0,10.0,10.0,10.0,10.0,10.0,10.0,10.0,246.0,246.0,246.0,246.0,512.1,941.7666666666667,100.46666666666667,512.0,1022.0,10.0,512.0,1022.0,10.0,512.0,1022.0,246.0,1.0,549.0,438.0
0,509.0,509.0,509.0,509.0,509.0,509.0,509.0,509.0,509.0,509.0,509.0,509.0,509.0,507.0,507.0,507.0,507.0,507.0,507.0,507.0,1008.0,1008.0,1008.0,1008.0,1008.0,1008.0,1008.0,1008.0,1008.0,1008.0,1008.0,1008.0,1008.0,1022.0,1022.0,1022.0,1022.0,1022.0,1022.0,1022.0,246.0,246.0,246.0,246.0,246.0,246.0,246.0,246.0,246.0,246.0,246.0,246.0,246.0,397.0,397.0,397.0,397.0,397.0,397.0,397.0,509.6666666666667,1015.0,205.4,507.0,1008.0,246.0,507.0,1022.0,397.0,509.0,1022.0,397.0,5.0,14.0,387.0
0,509.0,509.0,507.0,507.0,507.0,507.0,507.0,507.0,507.0,507.0,507.0,507.0,507.0,507.0,507.0,508.0,508.0,508.0,508.0,508.0,1008.0,1008.0,1022.0,1022.0,1022.0,1022.0,1022.0,1022.0,1022.0,1022.0,1022.0,1022.0,1022.0,1022.0,1022.0,348.0,348.0,348.0,348.0,348.0,246.0,246.0,397.0,397.0,397.0,397.0,397.0,397.0,397.0,397.0,397.0,397.0,397.0,397.0,397.0,477.0,477.0,477.0,477.0,477.0,507.93333333333334,926.5333333333333,347.26666666666665,507.0,348.0,246.0,508.0,348.0,477.0,509.0,1022.0,477.0,2.0,674.0,231.0
0,507.0,507.0,507.0,507.0,508.0,508.0,508.0,508.0,508.0,508.0,508.0,508.0,508.0,508.0,508.0,508.0,509.0,509.0,509.0,509.0,1022.0,1022.0,1022.0,348.0,348.0,348.0,348.0,348.0,348.0,348.0,348.0,348.0,348.0,348.0,348.0,348.0,24.0,24.0,24.0,24.0,397.0,397.0,397.0,477.0,477.0,477.0,477.0,477.0,477.0,477.0,477.0,477.0,477.0,477.0,477.0,526.0,526.0,526.0,526.0,526.0,507.6,673.7333333333333,433.6,507.0,24.0,397.0,508.0,348.0,477.0,509.0,1022.0,526.0,2.0,998.0,280.0
0,508.0,508.0,508.0,508.0,509.0,509.0,509.0,509.0,509.0,509.0,509.0,509.0,509.0,509.0,511.0,511.0,511.0,511.0,511.0,511.0,348.0,348.0,348.0,348.0,24.0,24.0,24.0,24.0,24.0,24.0,24.0,24.0,24.0,24.0,0.0,0.0,0.0,0.0,0.0,0.0,477.0,477.0,477.0,477.0,526.0,526.0,526.0,526.0,526.0,526.0,526.0,526.0,526.0,526.0,244.0,244.0,244.0,244.0,244.0,244.0,508.6666666666667,206.06666666666666,470.6333333333333,508.0,0.0,244.0,511.0,0.0,244.0,511.0,348.0,526.0,4.0,1022.0,282.0
0,511.0,511.0,511.0,511.0,511.0,511.0,511.0,511.0,511.0,511.0,511.0,511.0,512.0,512.0,512.0,512.0,512.0,512.0,512.0,512.0,0.0,0.0,0.0,0.0,0.0,0.0,0.0,0.0,0.0,0.0,0.0,0.0,0.0,0.0,0.0,0.0,0.0,0.0,0.0,0.0,244.0,244.0,244.0,244.0,244.0,244.0,244.0,244.0,244.0,244.0,244.0,244.0,158.0,158.0,158.0,158.0,158.0,158.0,158.0,158.0,510.73333333333335,4.8,280.3333333333333,511.0,0.0,158.0,512.0,0.0,158.0,512.0,0.0,244.0,3.0,24.0,368.0
0,512.0,512.0,512.0,512.0,512.0,512.0,512.0,512.0,512.0,512.0,512.0,512.0,512.0,512.0,512.0,512.0,512.0,511.0,511.0,511.0,0.0,0.0,0.0,0.0,0.0,0.0,0.0,0.0,0.0,0.0,0.0,0.0,0.0,0.0,0.0,0.0,0.0,8.0,8.0,8.0,158.0,158.0,158.0,158.0,158.0,158.0,158.0,158.0,158.0,158.0,158.0,158.0,158.0,158.0,158.0,158.0,158.0,357.0,357.0,357.0,511.6333333333333,0.5333333333333333,197.06666666666666,511.0,0.0,158.0,511.0,8.0,357.0,512.0,8.0,357.0,1.0,8.0,199.0
0,511.0,511.0,511.0,511.0,511.0,511.0,511.0,511.0,508.0,508.0,508.0,508.0,508.0,508.0,508.0,508.0,508.0,508.0,508.0,508.0,8.0,8.0,8.0,8.0,8.0,8.0,8.0,8.0,11.0,11.0,11.0,11.0,11.0,11.0,11.0,11.0,11.0,11.0,11.0,11.0,357.0,357.0,357.0,357.0,357.0,357.0,357.0,357.0,359.0,359.0,359.0,359.0,359.0,359.0,359.0,359.0,359.0,359.0,359.0,359.0,510.1333333333333,7.233333333333333,311.3,508.0,8.0,357.0,508.0,11.0,359.0,511.0,11.0,359.0,4.0,11.0,201.0
0,508.0,508.0,508.0,508.0,508.0,508.0,508.0,508.0,508.0,505.0,505.0,505.0,505.0,505.0,505.0,505.0,505.0,505.0,505.0,505.0,11.0,11.0,11.0,11.0,11.0,11.0,11.0,11.0,11.0,0.0,0.0,0.0,0.0,0.0,0.0,0.0,0.0,0.0,0.0,0.0,359.0,359.0,359.0,359.0,359.0,359.0,359.0,359.0,359.0,370.0,370.0,370.0,370.0,370.0,370.0,370.0,370.0,370.0,370.0,370.0,507.1,7.7,362.3,505.0,0.0,359.0,505.0,0.0,370.0,508.0,11.0,370.0,3.0,11.0,11.0
0,505.0,505.0,505.0,505.0,505.0,505.0,505.0,505.0,505.0,505.0,505.0,503.0,503.0,503.0,503.0,503.0,503.0,503.0,503.0,503.0,0.0,0.0,0.0,0.0,0.0,0.0,0.0,0.0,0.0,0.0,0.0,0.0,0.0,0.0,0.0,0.0,0.0,0.0,0.0,0.0,370.0,370.0,370.0,370.0,370.0,370.0,370.0,370.0,370.0,370.0,370.0,334.0,334.0,334.0,334.0,334.0,334.0,334.0,334.0,334.0,504.5,0.36666666666666664,358.8333333333333,503.0,0.0,334.0,503.0,0.0,334.0,505.0,0.0,370.0,5.0,11.0,36.0
0,503.0,503.0,503.0,503.0,502.0,502.0,502.0,502.0,502.0,502.0,502.0,502.0,502.0,502.0,502.0,502.0,502.0,502.0,502.0,502.0,0.0,0.0,0.0,0.0,0.0,0.0,0.0,0.0,0.0,0.0,0.0,0.0,0.0,0.0,0.0,0.0,0.0,0.0,0.0,0.0,334.0,334.0,334.0,334.0,265.0,265.0,265.0,265.0,265.0,265.0,265.0,265.0,265.0,265.0,265.0,265.0,265.0,265.0,265.0,265.0,502.53333333333336,0.0,301.8,502.0,0.0,265.0,502.0,0.0,265.0,503.0,0.0,334.0,1.0,0.0,69.0
0,506.0,506.0,506.0,506.0,506.0,506.0,506.0,510.0,510.0,510.0,510.0,510.0,510.0,510.0,510.0,510.0,510.0,510.0,510.0,510.0,2.0,2.0,2.0,2.0,2.0,2.0,2.0,30.0,30.0,30.0,30.0,30.0,30.0,30.0,30.0,30.0,30.0,30.0,30.0,30.0,472.0,472.0,472.0,472.0,472.0,472.0,472.0,479.0,479.0,479.0,479.0,479.0,479.0,479.0,479.0,479.0,479.0,479.0,479.0,479.0,506.26666666666665,12.533333333333333,405.8,506.0,2.0,472.0,510.0,30.0,479.0,510.0,30.0,479.0,8.0,30.0,214.0
0,510.0,510.0,510.0,510.0,507.0,507.0,507.0,507.0,507.0,507.0,507.0,510.0,510.0,510.0,510.0,510.0,510.0,510.0,510.0,510.0,30.0,30.0,30.0,30.0,52.0,52.0,52.0,52.0,52.0,52.0,52.0,156.0,156.0,156.0,156.0,156.0,156.0,156.0,156.0,156.0,479.0,479.0,479.0,479.0,382.0,382.0,382.0,382.0,382.0,382.0,382.0,446.0,446.0,446.0,446.0,446.0,446.0,446.0,446.0,446.0,509.1,66.0,442.2,507.0,30.0,382.0,510.0,156.0,446.0,510.0,156.0,479.0,3.0,126.0,97.0
0,510.0,510.0,510.0,510.0,510.0,510.0,510.0,511.0,511.0,511.0,511.0,509.0,509.0,509.0,509.0,509.0,509.0,509.0,509.0,509.0,156.0,156.0,156.0,156.0,156.0,156.0,156.0,165.0,165.0,165.0,165.0,235.0,235.0,235.0,235.0,235.0,235.0,235.0,235.0,235.0,446.0,446.0,446.0,446.0,446.0,446.0,446.0,459.0,459.0,459.0,459.0,612.0,612.0,612.0,612.0,612.0,612.0,612.0,612.0,612.0,509.23333333333335,160.1,484.73333333333335,509.0,156.0,446.0,509.0,235.0,612.0,511.0,235.0,612.0,4.0,183.0,230.0
0,509.0,509.0,509.0,509.0,509.0,509.0,509.0,509.0,509.0,509.0,509.0,509.0,509.0,509.0,509.0,509.0,509.0,509.0,509.0,509.0,235.0,235.0,235.0,235.0,235.0,235.0,235.0,235.0,235.0,289.0,289.0,289.0,289.0,289.0,289.0,289.0,289.0,289.0,289.0,289.0,612.0,612.0,612.0,612.0,612.0,612.0,612.0,612.0,612.0,626.0,626.0,626.0,626.0,626.0,626.0,626.0,626.0,626.0,626.0,626.0,509.26666666666665,241.86666666666667,595.8,509.0,235.0,612.0,509.0,289.0,626.0,509.0,289.0,626.0,2.0,124.0,167.0
0,509.0,509.0,509.0,509.0,509.0,509.0,509.0,509.0,509.0,509.0,509.0,509.0,509.0,509.0,509.0,508.0,508.0,508.0,508.0,508.0,289.0,289.0,289.0,289.0,289.0,289.0,289.0,289.0,289.0,289.0,289.0,289.0,289.0,289.0,289.0,257.0,257.0,257.0,257.0,257.0,626.0,626.0,626.0,626.0,626.0,626.0,626.0,626.0,626.0,626.0,626.0,626.0,626.0,626.0,626.0,527.0,527.0,527.0,527.0,527.0,508.8666666666667,273.93333333333334,610.0,508.0,257.0,527.0,508.0,257.0,527.0,509.0,289.0,626.0,1.0,54.0,99.0
0,508.0,508.0,508.0,508.0,508.0,508.0,508.0,508.0,508.0,508.0,508.0,508.0,508.0,512.0,512.0,512.0,512.0,512.0,512.0,512.0,257.0,257.0,257.0,257.0,257.0,257.0,257.0,257.0,257.0,257.0,257.0,257.0,257.0,293.0,293.0,293.0,293.0,293.0,293.0,293.0,527.0,527.0,527.0,527.0,527.0,527.0,527.0,527.0,527.0,527.0,527.0,527.0,659.0,659.0,659.0,659.0,659.0,659.0,659.0,659.0,509.03333333333336,271.6666666666667,576.5,508.0,257.0,527.0,512.0,293.0,659.0,512.0,293.0,659.0,4.0,36.0,132.0
0,512.0,512.0,512.0,512.0,512.0,512.0,512.0,512.0,512.0,512.0,512.0,512.0,512.0,512.0,512.0,512.0,512.0,512.0,512.0,512.0,293.0,293.0,293.0,293.0,293.0,293.0,293.0,293.0,293.0,293.0,293.0,293.0,293.0,293.0,293.0,293.0,293.0,293.0,331.0,331.0,659.0,659.0,659.0,659.0,659.0,659.0,659.0,659.0,659.0,659.0,659.0,659.0,659.0,659.0,659.0,659.0,659.0,659.0,669.0,669.0,510.6666666666667,281.0,615.0,512.0,293.0,659.0,512.0,293.0,659.0,512.0,293.0,659.0,4.0,36.0,132.0
0,512.0,512.0,512.0,512.0,512.0,512.0,512.0,512.0,512.0,512.0,512.0,512.0,512.0,512.0,512.0,512.0,512.0,512.0,512.0,512.0,331.0,331.0,331.0,331.0,331.0,331.0,331.0,331.0,331.0,331.0,331.0,331.0,365.0,365.0,365.0,365.0,365.0,365.0,365.0,365.0,669.0,669.0,669.0,669.0,669.0,669.0,669.0,669.0,669.0,669.0,669.0,669.0,497.0,497.0,497.0,497.0,497.0,497.0,497.0,497.0,512.0,329.93333333333334,620.4666666666667,512.0,331.0,497.0,512.0,365.0,497.0,512.0,365.0,669.0,0.0,72.0,172.0
0,512.0,512.0,512.0,512.0,512.0,512.0,512.0,512.0,512.0,512.0,512.0,512.0,512.0,514.0,514.0,514.0,514.0,514.0,514.0,514.0,365.0,365.0,365.0,365.0,365.0,365.0,365.0,365.0,365.0,365.0,365.0,365.0,365.0,396.0,396.0,396.0,396.0,396.0,396.0,396.0,497.0,497.0,497.0,497.0,497.0,497.0,497.0,497.0,497.0,497.0,497.0,497.0,497.0,567.0,567.0,567.0,567.0,567.0,567.0,567.0,512.3333333333334,365.6333333333333,531.6,512.0,365.0,497.0,514.0,396.0,567.0,514.0,396.0,567.0,2.0,65.0,172.0
0,514.0,514.0,514.0,514.0,514.0,514.0,514.0,514.0,514.0,512.0,512.0,512.0,512.0,512.0,512.0,512.0,512.0,512.0,512.0,512.0,396.0,396.0,396.0,396.0,396.0,396.0,396.0,396.0,396.0,433.0,433.0,433.0,433.0,433.0,433.0,433.0,433.0,433.0,433.0,433.0,567.0,567.0,567.0,567.0,567.0,567.0,567.0,567.0,567.0,596.0,596.0,596.0,596.0,596.0,596.0,596.0,596.0,596.0,596.0,596.0,513.2,408.53333333333336,575.3,512.0,396.0,567.0,512.0,433.0,596.0,514.0,433.0,596.0,2.0,68.0,99.0
0,512.0,512.0,512.0,512.0,512.0,512.0,512.0,512.0,512.0,512.0,512.0,509.0,509.0,509.0,509.0,509.0,509.0,509.0,509.0,509.0,433.0,433.0,433.0,433.0,433.0,433.0,433.0,433.0,433.0,433.0,433.0,468.0,468.0,468.0,468.0,468.0,468.0,468.0,468.0,468.0,596.0,596.0,596.0,596.0,596.0,596.0,596.0,596.0,596.0,596.0,596.0,555.0,555.0,555.0,555.0,555.0,555.0,555.0,555.0,555.0,511.3,441.1666666666667,586.4333333333333,509.0,433.0,555.0,509.0,468.0,555.0,512.0,468.0,596.0,3.0,35.0,41.0
0,509.0,509.0,509.0,509.0,509.0,509.0,509.0,509.0,509.0,509.0,509.0,509.0,508.0,508.0,508.0,508.0,508.0,508.0,508.0,508.0,468.0,468.0,468.0,468.0,468.0,468.0,468.0,468.0,468.0,468.0,468.0,468.0,512.0,512.0,512.0,512.0,512.0,512.0,512.0,512.0,555.0,555.0,555.0,555.0,555.0,555.0,555.0,555.0,555.0,555.0,555.0,555.0,674.0,674.0,674.0,674.0,674.0,674.0,674.0,674.0,509.1333333333333,475.06666666666666,592.2,508.0,468.0,555.0,508.0,512.0,674.0,509.0,512.0,674.0,4.0,79.0,119.0
0,509.0,508.0,508.0,508.0,508.0,508.0,508.0,508.0,508.0,508.0,508.0,508.0,508.0,508.0,508.0,508.0,509.0,509.0,509.0,509.0,468.0,512.0,512.0,512.0,512.0,512.0,512.0,512.0,512.0,512.0,512.0,512.0,512.0,512.0,512.0,512.0,537.0,537.0,537.0,537.0,555.0,674.0,674.0,674.0,674.0,674.0,674.0,674.0,674.0,674.0,674.0,674.0,674.0,674.0,674.0,674.0,635.0,635.0,635.0,635.0,508.5,499.2,625.1666666666666,508.0,468.0,555.0,509.0,537.0,635.0,509.0,537.0,674.0,1.0,69.0,119.0
0,508.0,508.0,508.0,508.0,508.0,508.0,509.0,509.0,509.0,509.0,509.0,509.0,509.0,509.0,509.0,509.0,509.0,509.0,509.0,509.0,512.0,512.0,512.0,512.0,512.0,512.0,537.0,537.0,537.0,537.0,537.0,537.0,537.0,537.0,537.0,537.0,537.0,518.0,518.0,518.0,674.0,674.0,674.0,674.0,674.0,674.0,635.0,635.0,635.0,635.0,635.0,635.0,635.0,635.0,635.0,635.0,635.0,591.0,591.0,591.0,508.5,520.3,647.4333333333333,508.0,512.0,591.0,509.0,518.0,591.0,509.0,537.0,674.0,1.0,69.0,119.0
0,509.0,509.0,509.0,509.0,509.0,509.0,509.0,509.0,509.0,509.0,509.0,509.0,509.0,507.0,507.0,507.0,507.0,507.0,507.0,507.0,537.0,537.0,518.0,518.0,518.0,518.0,518.0,518.0,518.0,518.0,518.0,518.0,518.0,453.0,453.0,453.0,453.0,453.0,453.0,453.0,635.0,635.0,591.0,591.0,591.0,591.0,591.0,591.0,591.0,591.0,591.0,591.0,591.0,737.0,737.0,737.0,737.0,737.0,737.0,737.0,508.53333333333336,511.56666666666666,641.8666666666667,507.0,453.0,591.0,507.0,453.0,737.0,509.0,537.0,737.0,2.0,84.0,146.0
0,509.0,509.0,509.0,509.0,507.0,507.0,507.0,507.0,507.0,507.0,507.0,507.0,507.0,507.0,508.0,508.0,508.0,508.0,508.0,508.0,518.0,518.0,518.0,518.0,453.0,453.0,453.0,453.0,453.0,453.0,453.0,453.0,453.0,453.0,455.0,455.0,455.0,455.0,455.0,455.0,591.0,591.0,591.0,591.0,737.0,737.0,737.0,737.0,737.0,737.0,737.0,737.0,737.0,737.0,930.0,930.0,930.0,930.0,930.0,930.0,508.1333333333333,488.3,705.4333333333333,507.0,453.0,591.0,508.0,455.0,930.0,509.0,518.0,930.0,2.0,84.0,339.0
0,508.0,508.0,508.0,508.0,508.0,508.0,508.0,508.0,508.0,508.0,508.0,508.0,508.0,508.0,508.0,508.0,508.0,508.0,508.0,507.0,455.0,455.0,455.0,455.0,169.0,169.0,169.0,169.0,169.0,169.0,169.0,169.0,169.0,169.0,169.0,169.0,169.0,169.0,169.0,0.0,930.0,930.0,930.0,930.0,857.0,857.0,857.0,857.0,857.0,857.0,857.0,857.0,857.0,857.0,857.0,857.0,857.0,857.0,857.0,729.0,507.8666666666667,321.26666666666665,870.2,508.0,169.0,857.0,508.0,169.0,857.0,508.0,455.0,930.0,1.0,286.0,193.0
0,508.0,507.0,507.0,507.0,507.0,507.0,507.0,507.0,507.0,507.0,507.0,507.0,507.0,507.0,507.0,507.0,507.0,507.0,507.0,506.0,169.0,0.0,0.0,0.0,0.0,0.0,0.0,10.0,10.0,10.0,10.0,10.0,10.0,10.0,10.0,10.0,10.0,10.0,10.0,118.0,857.0,729.0,729.0,729.0,729.0,729.0,729.0,588.0,588.0,588.0,588.0,588.0,588.0,588.0,588.0,588.0,588.0,588.0,588.0,515.0,507.3666666666667,65.96666666666667,719.5333333333333,507.0,0.0,588.0,507.0,10.0,588.0,508.0,169.0,857.0,1.0,169.0,269.0
0,507.0,507.0,507.0,507.0,507.0,506.0,506.0,506.0,506.0,506.0,506.0,506.0,506.0,506.0,507.0,507.0,507.0,507.0,507.0,507.0,10.0,10.0,10.0,10.0,10.0,118.0,118.0,118.0,118.0,118.0,118.0,118.0,118.0,118.0,257.0,257.0,257.0,257.0,257.0,257.0,588.0,588.0,588.0,588.0,588.0,515.0,515.0,515.0,515.0,515.0,515.0,515.0,515.0,515.0,492.0,492.0,492.0,492.0,492.0,492.0,506.6333333333333,73.96666666666667,556.3333333333334,506.0,10.0,492.0,507.0,257.0,492.0,507.0,257.0,588.0,1.0,257.0,237.0
0,506.0,506.0,506.0,506.0,507.0,507.0,507.0,507.0,507.0,507.0,507.0,507.0,507.0,507.0,507.0,506.0,506.0,506.0,506.0,506.0,118.0,118.0,118.0,257.0,257.0,257.0,257.0,257.0,257.0,257.0,257.0,257.0,257.0,257.0,257.0,389.0,389.0,389.0,389.0,389.0,515.0,515.0,515.0,492.0,492.0,492.0,492.0,492.0,492.0,492.0,492.0,492.0,492.0,492.0,492.0,516.0,516.0,516.0,516.0,516.0,506.6,169.26666666666668,514.8333333333334,506.0,118.0,492.0,507.0,257.0,492.0,507.0,389.0,516.0,1.0,247.0,96.0
0,507.0,507.0,507.0,507.0,507.0,506.0,506.0,506.0,506.0,506.0,506.0,506.0,506.0,506.0,506.0,506.0,507.0,507.0,507.0,507.0,257.0,257.0,257.0,257.0,257.0,389.0,389.0,389.0,389.0,389.0,389.0,389.0,389.0,389.0,389.0,389.0,400.0,400.0,400.0,400.0,492.0,492.0,492.0,492.0,492.0,516.0,516.0,516.0,516.0,516.0,516.0,516.0,516.0,516.0,516.0,516.0,630.0,630.0,630.0,630.0,506.5,296.4,513.0666666666667,506.0,257.0,492.0,507.0,400.0,630.0,507.0,400.0,630.0,1.0,282.0,138.0
0,507.0,507.0,507.0,507.0,507.0,507.0,507.0,507.0,507.0,507.0,507.0,507.0,507.0,506.0,506.0,506.0,506.0,506.0,506.0,506.0,400.0,400.0,400.0,400.0,400.0,400.0,400.0,400.0,400.0,400.0,400.0,400.0,400.0,457.0,457.0,457.0,457.0,457.0,457.0,457.0,630.0,630.0,630.0,630.0,630.0,630.0,630.0,630.0,630.0,630.0,630.0,630.0,630.0,672.0,672.0,672.0,672.0,672.0,672.0,672.0,506.56666666666666,411.1,617.0,506.0,400.0,630.0,506.0,457.0,672.0,507.0,457.0,672.0,1.0,68.0,156.0
0,506.0,506.0,506.0,506.0,506.0,506.0,506.0,506.0,506.0,507.0,507.0,507.0,507.0,507.0,507.0,507.0,507.0,507.0,507.0,507.0,457.0,457.0,457.0,457.0,457.0,457.0,457.0,457.0,457.0,482.0,482.0,482.0,482.0,482.0,482.0,482.0,482.0,482.0,482.0,482.0,672.0,672.0,672.0,672.0,672.0,672.0,672.0,672.0,672.0,600.0,600.0,600.0,600.0,600.0,600.0,600.0,600.0,600.0,600.0,600.0,506.56666666666666,452.03333333333336,638.2,506.0,457.0,600.0,507.0,482.0,600.0,507.0,482.0,672.0,1.0,82.0,72.0
0,507.0,507.0,507.0,507.0,507.0,507.0,507.0,507.0,507.0,507.0,507.0,507.0,507.0,507.0,507.0,507.0,507.0,507.0,507.0,507.0,482.0,482.0,482.0,482.0,482.0,482.0,482.0,482.0,482.0,482.0,482.0,482.0,482.0,482.0,482.0,482.0,482.0,482.0,482.0,482.0,600.0,600.0,600.0,600.0,600.0,600.0,608.0,608.0,608.0,608.0,608.0,608.0,608.0,608.0,608.0,608.0,608.0,608.0,608.0,608.0,507.0,482.0,603.7333333333333,507.0,482.0,600.0,507.0,482.0,608.0,507.0,482.0,608.0,0.0,0.0,8.0
0,507.0,507.0,507.0,507.0,507.0,507.0,507.0,509.0,509.0,509.0,509.0,512.0,512.0,512.0,512.0,512.0,512.0,512.0,512.0,512.0,482.0,482.0,482.0,482.0,482.0,482.0,482.0,518.0,518.0,518.0,518.0,572.0,572.0,572.0,572.0,572.0,572.0,572.0,572.0,572.0,608.0,608.0,608.0,608.0,608.0,608.0,608.0,606.0,606.0,606.0,606.0,632.0,632.0,632.0,632.0,632.0,632.0,632.0,632.0,632.0,508.6666666666667,512.0,614.0666666666667,507.0,482.0,606.0,512.0,572.0,632.0,512.0,572.0,632.0,5.0,90.0,26.0
0,512.0,512.0,512.0,512.0,512.0,512.0,512.0,512.0,512.0,512.0,512.0,512.0,512.0,512.0,512.0,512.0,514.0,514.0,514.0,514.0,572.0,572.0,572.0,572.0,572.0,572.0,572.0,572.0,572.0,572.0,572.0,572.0,572.0,572.0,572.0,572.0,670.0,670.0,670.0,670.0,632.0,632.0,632.0,632.0,632.0,632.0,632.0,632.0,632.0,632.0,632.0,632.0,632.0,632.0,632.0,632.0,642.0,642.0,642.0,642.0,510.73333333333335,557.5333333333333,625.1333333333333,512.0,572.0,632.0,514.0,670.0,642.0,514.0,670.0,642.0,7.0,188.0,36.0
0,512.0,512.0,512.0,512.0,512.0,512.0,512.0,512.0,514.0,514.0,514.0,514.0,514.0,514.0,514.0,514.0,514.0,514.0,514.0,514.0,572.0,572.0,572.0,572.0,572.0,572.0,572.0,572.0,670.0,670.0,670.0,670.0,670.0,670.0,670.0,670.0,670.0,674.0,674.0,674.0,632.0,632.0,632.0,632.0,632.0,632.0,632.0,632.0,642.0,642.0,642.0,642.0,642.0,642.0,642.0,642.0,642.0,577.0,577.0,577.0,512.7333333333333,608.0666666666667,633.5,512.0,572.0,577.0,514.0,674.0,577.0,514.0,674.0,642.0,2.0,102.0,65.0
0,514.0,514.0,514.0,514.0,514.0,514.0,514.0,514.0,514.0,514.0,514.0,514.0,514.0,514.0,514.0,514.0,514.0,512.0,512.0,512.0,670.0,674.0,674.0,674.0,674.0,674.0,674.0,674.0,674.0,674.0,674.0,674.0,674.0,674.0,674.0,674.0,674.0,726.0,726.0,726.0,642.0,577.0,577.0,577.0,577.0,577.0,577.0,577.0,577.0,577.0,577.0,577.0,577.0,577.0,577.0,577.0,577.0,595.0,595.0,595.0,513.8,667.6,602.9333333333333,512.0,670.0,577.0,512.0,726.0,595.0,514.0,726.0,642.0,2.0,154.0,65.0
0,514.0,512.0,512.0,512.0,512.0,512.0,512.0,512.0,512.0,512.0,512.0,512.0,512.0,512.0,512.0,512.0,512.0,512.0,512.0,512.0,674.0,726.0,726.0,726.0,726.0,726.0,726.0,726.0,726.0,726.0,726.0,726.0,726.0,928.0,928.0,928.0,928.0,928.0,928.0,928.0,577.0,595.0,595.0,595.0,595.0,595.0,595.0,595.0,595.0,595.0,595.0,595.0,595.0,578.0,578.0,578.0,578.0,578.0,578.0,578.0,512.7333333333333,747.3333333333334,585.0,512.0,674.0,577.0,512.0,928.0,578.0,514.0,928.0,595.0,2.0,254.0,18.0
0,512.0,512.0,512.0,512.0,512.0,512.0,512.0,512.0,512.0,512.0,512.0,512.0,512.0,512.0,512.0,512.0,511.0,511.0,511.0,511.0,726.0,726.0,928.0,928.0,928.0,928.0,928.0,928.0,928.0,928.0,928.0,928.0,928.0,928.0,928.0,928.0,630.0,630.0,630.0,630.0,595.0,595.0,578.0,578.0,578.0,578.0,578.0,578.0,578.0,578.0,578.0,578.0,578.0,578.0,578.0,578.0,574.0,574.0,574.0,574.0,511.8666666666667,807.4666666666667,584.2666666666667,511.0,630.0,574.0,511.0,630.0,574.0,512.0,928.0,595.0,1.0,298.0,21.0
0,511.0,511.0,511.0,511.0,511.0,511.0,511.0,511.0,511.0,511.0,510.0,510.0,510.0,510.0,510.0,510.0,510.0,510.0,510.0,510.0,630.0,630.0,630.0,630.0,630.0,630.0,630.0,630.0,630.0,630.0,656.0,656.0,656.0,656.0,656.0,656.0,656.0,656.0,656.0,656.0,574.0,574.0,574.0,574.0,574.0,574.0,574.0,574.0,574.0,574.0,559.0,559.0,559.0,559.0,559.0,559.0,559.0,559.0,559.0,559.0,511.0,716.4,571.0666666666667,510.0,630.0,559.0,510.0,656.0,559.0,511.0,656.0,574.0,2.0,298.0,19.0
0,510.0,510.0,510.0,510.0,508.0,508.0,508.0,508.0,508.0,508.0,508.0,508.0,508.0,508.0,508.0,508.0,508.0,508.0,508.0,508.0,656.0,656.0,656.0,656.0,658.0,658.0,658.0,658.0,658.0,658.0,658.0,658.0,658.0,658.0,658.0,658.0,658.0,658.0,658.0,658.0,559.0,559.0,559.0,559.0,555.0,555.0,555.0,555.0,555.0,555.0,555.0,555.0,555.0,555.0,555.0,555.0,555.0,555.0,555.0,555.0,508.93333333333334,657.0666666666667,556.8666666666667,508.0,656.0,555.0,508.0,658.0,555.0,510.0,658.0,559.0,2.0,2.0,4.0
0,508.0,508.0,508.0,507.0,507.0,507.0,507.0,507.0,507.0,507.0,507.0,507.0,507.0,507.0,507.0,505.0,505.0,505.0,505.0,505.0,658.0,658.0,658.0,541.0,541.0,541.0,541.0,541.0,541.0,541.0,541.0,541.0,541.0,541.0,541.0,423.0,423.0,423.0,423.0,423.0,555.0,555.0,555.0,621.0,621.0,621.0,621.0,621.0,621.0,621.0,621.0,621.0,621.0,621.0,621.0,535.0,535.0,535.0,535.0,535.0,507.3333333333333,587.7333333333333,584.4666666666667,505.0,423.0,535.0,505.0,423.0,535.0,508.0,658.0,621.0,3.0,235.0,86.0
0,505.0,505.0,505.0,505.0,505.0,505.0,505.0,505.0,505.0,505.0,506.0,506.0,506.0,506.0,506.0,506.0,506.0,506.0,506.0,506.0,423.0,423.0,423.0,423.0,423.0,423.0,423.0,423.0,423.0,423.0,548.0,548.0,548.0,548.0,548.0,548.0,548.0,548.0,548.0,548.0,535.0,535.0,535.0,535.0,535.0,535.0,535.0,535.0,535.0,535.0,455.0,455.0,455.0,455.0,455.0,455.0,455.0,455.0,455.0,455.0,505.7,484.1,528.2,505.0,423.0,455.0,506.0,548.0,455.0,506.0,548.0,535.0,2.0,125.0,166.0
0,506.0,506.0,506.0,505.0,505.0,505.0,505.0,505.0,505.0,505.0,505.0,505.0,505.0,505.0,506.0,506.0,506.0,506.0,506.0,506.0,548.0,548.0,548.0,166.0,166.0,166.0,166.0,166.0,166.0,166.0,166.0,166.0,166.0,166.0,0.0,0.0,0.0,0.0,0.0,0.0,455.0,455.0,455.0,435.0,435.0,435.0,435.0,435.0,435.0,435.0,435.0,435.0,435.0,435.0,417.0,417.0,417.0,417.0,417.0,417.0,505.5,357.0,445.0,505.0,166.0,435.0,505.0,166.0,435.0,506.0,548.0,455.0,1.0,382.0,20.0
0,506.0,506.0,506.0,506.0,506.0,506.0,506.0,506.0,506.0,506.0,506.0,506.0,506.0,506.0,506.0,506.0,506.0,506.0,506.0,506.0,0.0,0.0,0.0,0.0,0.0,0.0,0.0,0.0,0.0,93.0,93.0,93.0,93.0,93.0,93.0,93.0,93.0,93.0,93.0,93.0,417.0,417.0,417.0,417.0,417.0,417.0,417.0,417.0,417.0,398.0,398.0,398.0,398.0,398.0,398.0,398.0,398.0,398.0,398.0,398.0,505.9,44.5,413.1,506.0,0.0,398.0,506.0,93.0,398.0,506.0,93.0,417.0,1.0,166.0,37.0
0,506.0,506.0,506.0,506.0,506.0,506.0,506.0,506.0,506.0,506.0,507.0,507.0,507.0,507.0,507.0,507.0,504.0,504.0,504.0,504.0,93.0,93.0,93.0,93.0,93.0,93.0,93.0,93.0,93.0,380.0,380.0,380.0,380.0,380.0,380.0,380.0,380.0,380.0,380.0,380.0,398.0,398.0,398.0,398.0,398.0,398.0,398.0,398.0,398.0,393.0,393.0,393.0,393.0,393.0,393.0,393.0,355.0,355.0,355.0,355.0,506.26666666666665,150.93333333333334,400.46666666666664,504.0,93.0,355.0,507.0,380.0,393.0,507.0,380.0,398.0,1.0,380.0,24.0
0,504.0,504.0,504.0,504.0,504.0,504.0,504.0,504.0,505.0,505.0,505.0,505.0,505.0,505.0,505.0,505.0,505.0,505.0,505.0,505.0,380.0,380.0,380.0,380.0,380.0,380.0,380.0,380.0,406.0,406.0,406.0,406.0,406.0,406.0,406.0,406.0,406.0,406.0,406.0,406.0,355.0,355.0,355.0,355.0,355.0,355.0,355.0,355.0,345.0,345.0,345.0,345.0,345.0,345.0,345.0,345.0,345.0,345.0,345.0,345.0,504.96666666666664,386.93333333333334,361.2,504.0,380.0,345.0,505.0,406.0,345.0,505.0,406.0,355.0,3.0,26.0,48.0
0,505.0,505.0,505.0,505.0,505.0,505.0,505.0,505.0,505.0,505.0,505.0,505.0,505.0,505.0,505.0,505.0,505.0,505.0,505.0,506.0,406.0,406.0,406.0,406.0,406.0,406.0,406.0,406.0,406.0,406.0,406.0,406.0,406.0,406.0,406.0,406.0,406.0,406.0,406.0,425.0,345.0,345.0,345.0,345.0,345.0,345.0,345.0,345.0,345.0,345.0,345.0,345.0,345.0,345.0,345.0,345.0,345.0,345.0,345.0,384.0,504.8333333333333,401.6666666666667,346.6666666666667,505.0,406.0,345.0,505.0,406.0,345.0,505.0,406.0,345.0,1.0,26.0,10.0
0,505.0,505.0,505.0,505.0,505.0,505.0,505.0,506.0,506.0,506.0,506.0,506.0,506.0,506.0,506.0,506.0,506.0,504.0,504.0,504.0,406.0,406.0,406.0,406.0,406.0,406.0,406.0,425.0,425.0,425.0,425.0,425.0,425.0,425.0,425.0,425.0,425.0,436.0,436.0,436.0,345.0,345.0,345.0,345.0,345.0,345.0,345.0,384.0,384.0,384.0,384.0,384.0,384.0,384.0,384.0,384.0,384.0,401.0,401.0,401.0,505.3666666666667,414.6,362.46666666666664,504.0,406.0,345.0,504.0,436.0,401.0,506.0,436.0,401.0,2.0,30.0,56.0
0,506.0,506.0,506.0,506.0,506.0,504.0,504.0,504.0,504.0,504.0,504.0,504.0,504.0,504.0,504.0,505.0,505.0,505.0,505.0,505.0,425.0,425.0,425.0,425.0,425.0,436.0,436.0,436.0,436.0,436.0,436.0,436.0,436.0,436.0,436.0,446.0,446.0,446.0,446.0,446.0,384.0,384.0,384.0,384.0,384.0,401.0,401.0,401.0,401.0,401.0,401.0,401.0,401.0,401.0,401.0,412.0,412.0,412.0,412.0,412.0,505.06666666666666,428.93333333333334,388.2,504.0,425.0,384.0,505.0,446.0,412.0,506.0,446.0,412.0,2.0,40.0,67.0
0,505.0,505.0,505.0,505.0,505.0,505.0,505.0,508.0,508.0,508.0,508.0,508.0,508.0,508.0,508.0,508.0,508.0,508.0,508.0,508.0,446.0,446.0,446.0,446.0,446.0,446.0,446.0,454.0,454.0,454.0,454.0,454.0,454.0,454.0,454.0,454.0,454.0,454.0,454.0,454.0,412.0,412.0,412.0,412.0,412.0,412.0,412.0,398.0,398.0,398.0,398.0,398.0,398.0,398.0,398.0,398.0,398.0,398.0,398.0,398.0,505.9,446.93333333333334,404.6666666666667,505.0,446.0,398.0,508.0,454.0,398.0,508.0,454.0,412.0,4.0,18.0,14.0
0,508.0,508.0,508.0,508.0,508.0,508.0,508.0,508.0,508.0,509.0,509.0,509.0,509.0,509.0,509.0,511.0,511.0,511.0,511.0,511.0,454.0,454.0,454.0,454.0,454.0,454.0,454.0,454.0,454.0,507.0,507.0,507.0,507.0,507.0,507.0,683.0,683.0,683.0,683.0,683.0,398.0,398.0,398.0,398.0,398.0,398.0,398.0,398.0,398.0,423.0,423.0,423.0,423.0,423.0,423.0,414.0,414.0,414.0,414.0,414.0,508.53333333333336,496.9,405.96666666666664,508.0,454.0,398.0,511.0,683.0,414.0,511.0,683.0,423.0,3.0,229.0,25.0
0,509.0,509.0,509.0,511.0,511.0,511.0,511.0,511.0,511.0,511.0,511.0,511.0,511.0,514.0,514.0,514.0,514.0,514.0,514.0,514.0,507.0,507.0,507.0,683.0,683.0,683.0,683.0,683.0,683.0,683.0,683.0,683.0,683.0,613.0,613.0,613.0,613.0,613.0,613.0,613.0,423.0,423.0,423.0,414.0,414.0,414.0,414.0,414.0,414.0,414.0,414.0,414.0,414.0,377.0,377.0,377.0,377.0,377.0,377.0,377.0,510.1333333333333,571.5333333333333,406.2,509.0,507.0,377.0,514.0,613.0,377.0,514.0,683.0,423.0,6.0,229.0,46.0
0,514.0,514.0,514.0,514.0,514.0,514.0,514.0,514.0,514.0,514.0,514.0,514.0,514.0,514.0,511.0,511.0,511.0,511.0,511.0,511.0,613.0,613.0,613.0,613.0,613.0,613.0,613.0,613.0,613.0,613.0,613.0,613.0,613.0,613.0,663.0,663.0,663.0,663.0,663.0,663.0,377.0,377.0,377.0,377.0,377.0,377.0,377.0,377.0,377.0,377.0,377.0,377.0,377.0,377.0,437.0,437.0,437.0,437.0,437.0,437.0,512.8,638.3333333333334,394.8666666666667,511.0,613.0,377.0,511.0,663.0,437.0,514.0,663.0,437.0,3.0,70.0,60.0
0,511.0,511.0,511.0,511.0,511.0,511.0,511.0,511.0,511.0,511.0,511.0,511.0,511.0,511.0,511.0,511.0,511.0,511.0,511.0,511.0,663.0,663.0,663.0,663.0,663.0,663.0,663.0,663.0,663.0,663.0,663.0,638.0,638.0,638.0,638.0,638.0,638.0,638.0,638.0,638.0,437.0,437.0,437.0,437.0,437.0,437.0,437.0,437.0,437.0,437.0,437.0,448.0,448.0,448.0,448.0,448.0,448.0,448.0,448.0,448.0,511.3,652.1666666666666,433.56666666666666,511.0,638.0,437.0,511.0,638.0,448.0,511.0,663.0,448.0,3.0,50.0,71.0
0,511.0,511.0,511.0,511.0,511.0,511.0,510.0,510.0,510.0,510.0,510.0,510.0,510.0,510.0,510.0,510.0,510.0,510.0,510.0,510.0,638.0,638.0,638.0,638.0,638.0,638.0,517.0,517.0,517.0,517.0,517.0,517.0,517.0,517.0,517.0,517.0,517.0,517.0,517.0,517.0,448.0,448.0,448.0,448.0,448.0,448.0,504.0,504.0,504.0,504.0,504.0,504.0,504.0,504.0,504.0,504.0,504.0,504.0,504.0,504.0,510.56666666666666,587.2333333333333,471.53333333333336,510.0,517.0,448.0,510.0,517.0,504.0,511.0,638.0,504.0,1.0,146.0,67.0
0,510.0,510.0,510.0,508.0,508.0,508.0,508.0,508.0,508.0,508.0,509.0,509.0,509.0,509.0,509.0,509.0,509.0,509.0,509.0,509.0,517.0,517.0,517.0,955.0,955.0,955.0,955.0,955.0,955.0,955.0,927.0,927.0,927.0,927.0,927.0,927.0,927.0,927.0,927.0,927.0,504.0,504.0,504.0,505.0,505.0,505.0,505.0,505.0,505.0,505.0,490.0,490.0,490.0,490.0,490.0,490.0,490.0,490.0,490.0,490.0,509.3,714.8666666666667,500.96666666666664,508.0,517.0,490.0,509.0,927.0,490.0,510.0,955.0,505.0,2.0,438.0,15.0
0,509.0,509.0,509.0,509.0,509.0,509.0,509.0,509.0,509.0,509.0,509.0,509.0,509.0,509.0,509.0,509.0,509.0,509.0,509.0,506.0,927.0,927.0,927.0,927.0,927.0,927.0,927.0,927.0,927.0,927.0,927.0,927.0,927.0,927.0,927.0,927.0,927.0,927.0,927.0,746.0,490.0,490.0,490.0,490.0,490.0,490.0,490.0,490.0,490.0,490.0,490.0,490.0,490.0,490.0,490.0,490.0,490.0,490.0,490.0,548.0,508.6666666666667,927.5,495.43333333333334,506.0,746.0,490.0,506.0,746.0,548.0,509.0,927.0,548.0,3.0,209.0,58.0
0,506.0,506.0,506.0,506.0,506.0,506.0,506.0,506.0,506.0,506.0,506.0,506.0,506.0,506.0,506.0,506.0,506.0,506.0,506.0,506.0,746.0,746.0,746.0,746.0,746.0,746.0,746.0,511.0,511.0,511.0,511.0,511.0,511.0,511.0,511.0,511.0,511.0,511.0,511.0,511.0,548.0,548.0,548.0,548.0,548.0,548.0,548.0,611.0,611.0,611.0,611.0,611.0,611.0,611.0,611.0,611.0,611.0,611.0,611.0,611.0,506.2,650.2,573.3666666666667,506.0,511.0,548.0,506.0,511.0,611.0,506.0,746.0,611.0,3.0,416.0,121.0
0,506.0,506.0,506.0,506.0,506.0,506.0,506.0,506.0,506.0,506.0,506.0,506.0,506.0,507.0,507.0,507.0,507.0,507.0,507.0,507.0,511.0,511.0,511.0,511.0,511.0,511.0,511.0,511.0,511.0,511.0,511.0,511.0,511.0,424.0,424.0,424.0,424.0,424.0,424.0,424.0,611.0,611.0,611.0,611.0,611.0,611.0,611.0,611.0,611.0,611.0,611.0,611.0,611.0,636.0,636.0,636.0,636.0,636.0,636.0,636.0,506.1333333333333,522.9,610.9666666666667,506.0,424.0,611.0,507.0,424.0,636.0,507.0,511.0,636.0,1.0,322.0,88.0
0,507.0,507.0,507.0,507.0,507.0,507.0,507.0,507.0,508.0,508.0,508.0,508.0,508.0,508.0,508.0,508.0,508.0,508.0,508.0,508.0,424.0,424.0,424.0,424.0,424.0,424.0,424.0,424.0,412.0,412.0,412.0,412.0,412.0,412.0,412.0,412.0,412.0,412.0,412.0,412.0,636.0,636.0,636.0,636.0,636.0,636.0,636.0,636.0,641.0,641.0,641.0,641.0,641.0,641.0,641.0,641.0,641.0,641.0,641.0,641.0,507.23333333333335,433.7,633.8333333333334,507.0,412.0,636.0,508.0,412.0,641.0,508.0,424.0,641.0,2.0,99.0,30.0
0,508.0,508.0,508.0,508.0,508.0,508.0,508.0,508.0,508.0,508.0,508.0,508.0,508.0,508.0,508.0,508.0,508.0,508.0,508.0,508.0,412.0,412.0,412.0,412.0,412.0,412.0,412.0,412.0,412.0,405.0,405.0,405.0,405.0,405.0,405.0,405.0,405.0,405.0,405.0,405.0,641.0,641.0,641.0,641.0,641.0,641.0,641.0,641.0,641.0,627.0,627.0,627.0,627.0,627.0,627.0,627.0,627.0,627.0,627.0,627.0,508.0,409.9,636.8,508.0,405.0,627.0,508.0,405.0,627.0,508.0,412.0,641.0,0.0,7.0,14.0
0,508.0,508.0,508.0,508.0,508.0,508.0,508.0,508.0,508.0,511.0,511.0,511.0,511.0,511.0,511.0,508.0,508.0,508.0,508.0,508.0,405.0,405.0,405.0,405.0,405.0,405.0,405.0,405.0,405.0,528.0,528.0,528.0,528.0,528.0,528.0,361.0,361.0,361.0,361.0,361.0,627.0,627.0,627.0,627.0,627.0,627.0,627.0,627.0,627.0,605.0,605.0,605.0,605.0,605.0,605.0,588.0,588.0,588.0,588.0,588.0,508.8,437.5,622.1666666666666,508.0,361.0,588.0,508.0,361.0,588.0,511.0,528.0,627.0,3.0,167.0,53.0
0,508.0,508.0,508.0,508.0,508.0,508.0,508.0,508.0,508.0,508.0,508.0,508.0,508.0,508.0,508.0,508.0,508.0,508.0,508.0,508.0,361.0,361.0,361.0,361.0,361.0,361.0,361.0,361.0,361.0,361.0,361.0,361.0,361.0,369.0,369.0,369.0,369.0,369.0,369.0,369.0,588.0,588.0,588.0,588.0,588.0,588.0,588.0,588.0,588.0,588.0,588.0,588.0,588.0,570.0,570.0,570.0,570.0,570.0,570.0,570.0,508.2,373.73333333333335,585.5333333333333,508.0,361.0,570.0,508.0,369.0,570.0,508.0,369.0,588.0,3.0,167.0,35.0
0,508.0,508.0,508.0,508.0,508.0,508.0,508.0,508.0,508.0,506.0,506.0,506.0,506.0,506.0,506.0,506.0,506.0,506.0,506.0,506.0,369.0,369.0,369.0,369.0,369.0,369.0,369.0,369.0,369.0,425.0,425.0,425.0,425.0,425.0,425.0,425.0,425.0,425.0,425.0,425.0,570.0,570.0,570.0,570.0,570.0,570.0,570.0,570.0,570.0,547.0,547.0,547.0,547.0,547.0,547.0,547.0,547.0,547.0,547.0,547.0,507.26666666666665,388.2,564.5666666666667,506.0,369.0,547.0,506.0,425.0,547.0,508.0,425.0,570.0,2.0,64.0,41.0
0,506.0,506.0,506.0,506.0,506.0,506.0,506.0,506.0,506.0,506.0,506.0,506.0,506.0,506.0,506.0,506.0,506.0,506.0,506.0,506.0,425.0,425.0,425.0,425.0,425.0,425.0,425.0,425.0,425.0,426.0,426.0,426.0,426.0,426.0,426.0,426.0,444.0,444.0,444.0,444.0,547.0,547.0,547.0,547.0,547.0,547.0,547.0,547.0,547.0,567.0,567.0,567.0,567.0,567.0,567.0,567.0,596.0,596.0,596.0,596.0,506.2,421.56666666666666,559.5333333333333,506.0,425.0,547.0,506.0,444.0,596.0,506.0,444.0,596.0,2.0,75.0,49.0
0,506.0,506.0,506.0,506.0,506.0,506.0,506.0,506.0,506.0,506.0,506.0,506.0,506.0,506.0,506.0,506.0,506.0,506.0,506.0,506.0,425.0,426.0,426.0,426.0,426.0,426.0,426.0,426.0,426.0,444.0,444.0,444.0,444.0,444.0,444.0,444.0,444.0,444.0,472.0,472.0,547.0,567.0,567.0,567.0,567.0,567.0,567.0,567.0,567.0,596.0,596.0,596.0,596.0,596.0,596.0,596.0,596.0,596.0,611.0,611.0,506.0,433.1666666666667,570.8,506.0,425.0,547.0,506.0,472.0,611.0,506.0,472.0,611.0,0.0,47.0,64.0
0,506.0,506.0,506.0,506.0,506.0,506.0,506.0,506.0,506.0,506.0,506.0,506.0,506.0,506.0,506.0,506.0,506.0,506.0,506.0,506.0,444.0,444.0,444.0,444.0,444.0,444.0,472.0,472.0,472.0,472.0,472.0,472.0,472.0,472.0,481.0,481.0,481.0,481.0,481.0,481.0,596.0,596.0,596.0,596.0,596.0,596.0,611.0,611.0,611.0,611.0,611.0,611.0,611.0,611.0,586.0,586.0,586.0,586.0,586.0,586.0,506.0,454.96666666666664,593.0333333333333,506.0,444.0,586.0,506.0,481.0,586.0,506.0,481.0,611.0,0.0,55.0,44.0
0,506.0,506.0,506.0,506.0,506.0,506.0,506.0,506.0,506.0,506.0,506.0,506.0,506.0,506.0,506.0,506.0,506.0,507.0,507.0,507.0,472.0,481.0,481.0,481.0,481.0,481.0,481.0,481.0,481.0,481.0,481.0,481.0,481.0,481.0,481.0,481.0,481.0,494.0,494.0,494.0,611.0,586.0,586.0,586.0,586.0,586.0,586.0,586.0,586.0,586.0,586.0,586.0,586.0,586.0,586.0,586.0,558.0,558.0,558.0,558.0,506.06666666666666,476.7,592.3,506.0,472.0,558.0,507.0,494.0,558.0,507.0,494.0,611.0,1.0,50.0,53.0
0,507.0,507.0,507.0,507.0,507.0,507.0,510.0,510.0,510.0,510.0,510.0,510.0,510.0,510.0,510.0,510.0,510.0,510.0,510.0,510.0,494.0,494.0,494.0,494.0,494.0,494.0,494.0,494.0,494.0,494.0,494.0,494.0,494.0,494.0,494.0,494.0,494.0,494.0,494.0,494.0,558.0,558.0,558.0,558.0,558.0,519.0,519.0,519.0,519.0,519.0,519.0,519.0,519.0,519.0,519.0,519.0,519.0,519.0,519.0,519.0,508.23333333333335,491.8333333333333,544.4666666666667,507.0,494.0,519.0,510.0,494.0,519.0,510.0,494.0,558.0,4.0,13.0,67.0
0,510.0,510.0,511.0,511.0,511.0,511.0,511.0,511.0,511.0,511.0,511.0,511.0,511.0,511.0,509.0,509.0,509.0,509.0,509.0,509.0,494.0,494.0,486.0,486.0,486.0,486.0,486.0,486.0,486.0,486.0,486.0,486.0,486.0,486.0,478.0,478.0,478.0,478.0,478.0,478.0,519.0,519.0,871.0,871.0,871.0,871.0,871.0,871.0,871.0,871.0,871.0,871.0,871.0,871.0,1021.0,1021.0,1021.0,1021.0,1021.0,1021.0,510.4,489.2,716.7333333333333,509.0,478.0,519.0,509.0,478.0,1021.0,511.0,494.0,1021.0,2.0,16.0,502.0
0,511.0,511.0,511.0,511.0,511.0,509.0,509.0,509.0,509.0,509.0,509.0,509.0,509.0,509.0,509.0,509.0,509.0,509.0,509.0,509.0,486.0,486.0,486.0,486.0,486.0,478.0,478.0,478.0,478.0,478.0,478.0,478.0,478.0,478.0,478.0,478.0,478.0,478.0,478.0,485.0,871.0,871.0,871.0,871.0,871.0,1021.0,1021.0,1021.0,1021.0,1021.0,1021.0,1021.0,1021.0,1021.0,1021.0,1021.0,1021.0,1021.0,1021.0,901.0,509.96666666666664,482.5,930.2666666666667,509.0,478.0,871.0,509.0,478.0,1021.0,511.0,486.0,1021.0,2.0,16.0,502.0
0,509.0,509.0,509.0,509.0,509.0,509.0,509.0,509.0,509.0,509.0,509.0,509.0,510.0,510.0,510.0,510.0,510.0,510.0,510.0,510.0,478.0,485.0,485.0,485.0,485.0,485.0,485.0,485.0,485.0,485.0,485.0,485.0,594.0,594.0,594.0,594.0,594.0,594.0,594.0,594.0,1021.0,901.0,901.0,901.0,901.0,901.0,901.0,901.0,901.0,901.0,901.0,901.0,740.0,740.0,740.0,740.0,740.0,740.0,740.0,740.0,509.1333333333333,500.6,918.1666666666666,509.0,478.0,740.0,510.0,594.0,740.0,510.0,594.0,1021.0,1.0,116.0,281.0
0,509.0,509.0,509.0,509.0,509.0,510.0,510.0,510.0,510.0,510.0,510.0,510.0,510.0,510.0,510.0,510.0,510.0,510.0,510.0,507.0,485.0,485.0,485.0,485.0,485.0,594.0,594.0,594.0,594.0,594.0,594.0,594.0,594.0,594.0,594.0,594.0,594.0,594.0,594.0,778.0,901.0,901.0,901.0,901.0,901.0,740.0,740.0,740.0,740.0,740.0,740.0,740.0,740.0,740.0,740.0,740.0,740.0,740.0,740.0,689.0,509.4,545.4,822.8,507.0,485.0,689.0,507.0,778.0,689.0,510.0,778.0,901.0,3.0,300.0,332.0
0,510.0,510.0,510.0,510.0,510.0,507.0,507.0,507.0,507.0,507.0,507.0,507.0,507.0,507.0,507.0,509.0,509.0,509.0,509.0,509.0,594.0,594.0,594.0,594.0,594.0,778.0,778.0,778.0,778.0,778.0,778.0,778.0,778.0,778.0,778.0,1023.0,1023.0,1023.0,1023.0,1023.0,740.0,740.0,740.0,740.0,740.0,689.0,689.0,689.0,689.0,689.0,689.0,689.0,689.0,689.0,689.0,635.0,635.0,635.0,635.0,635.0,508.8,687.3333333333334,728.6,507.0,594.0,635.0,509.0,1023.0,635.0,510.0,1023.0,740.0,3.0,538.0,266.0
0,509.0,509.0,509.0,509.0,509.0,509.0,509.0,509.0,511.0,511.0,511.0,511.0,511.0,511.0,511.0,511.0,511.0,511.0,511.0,511.0,1023.0,1023.0,1023.0,1023.0,1023.0,1023.0,1023.0,1023.0,489.0,489.0,489.0,489.0,489.0,489.0,489.0,489.0,489.0,489.0,489.0,489.0,635.0,635.0,635.0,635.0,635.0,635.0,635.0,635.0,608.0,608.0,608.0,608.0,608.0,608.0,608.0,608.0,608.0,608.0,608.0,608.0,509.53333333333336,828.6666666666666,629.6,509.0,489.0,608.0,511.0,489.0,608.0,511.0,1023.0,635.0,4.0,534.0,81.0
0,511.0,511.0,511.0,511.0,511.0,511.0,511.0,511.0,511.0,510.0,510.0,510.0,510.0,510.0,510.0,507.0,507.0,507.0,507.0,507.0,489.0,489.0,489.0,489.0,489.0,489.0,489.0,489.0,489.0,936.0,936.0,936.0,936.0,936.0,936.0,706.0,706.0,706.0,706.0,706.0,608.0,608.0,608.0,608.0,608.0,608.0,608.0,608.0,608.0,554.0,554.0,554.0,554.0,554.0,554.0,542.0,542.0,542.0,542.0,542.0,510.1333333333333,642.9333333333333,590.2,507.0,489.0,542.0,507.0,706.0,542.0,511.0,936.0,608.0,4.0,534.0,93.0
0,507.0,507.0,507.0,507.0,507.0,507.0,507.0,507.0,507.0,507.0,507.0,507.0,507.0,507.0,509.0,509.0,509.0,509.0,509.0,509.0,706.0,706.0,706.0,706.0,706.0,706.0,706.0,706.0,706.0,706.0,706.0,706.0,706.0,706.0,505.0,505.0,505.0,505.0,505.0,505.0,542.0,542.0,542.0,542.0,542.0,542.0,542.0,542.0,542.0,542.0,542.0,542.0,542.0,520.0,520.0,520.0,520.0,520.0,520.0,520.0,507.8666666666667,725.2,541.4666666666667,507.0,505.0,520.0,509.0,505.0,520.0,509.0,706.0,542.0,3.0,431.0,34.0
0,507.0,507.0,507.0,507.0,509.0,509.0,509.0,509.0,509.0,509.0,509.0,509.0,509.0,509.0,509.0,509.0,509.0,510.0,510.0,510.0,706.0,706.0,706.0,706.0,505.0,505.0,505.0,505.0,505.0,505.0,505.0,505.0,505.0,505.0,505.0,505.0,505.0,367.0,367.0,367.0,542.0,542.0,542.0,542.0,520.0,520.0,520.0,520.0,520.0,520.0,520.0,520.0,520.0,520.0,520.0,520.0,512.0,512.0,512.0,512.0,508.0,605.5,531.0,507.0,505.0,520.0,509.0,505.0,520.0,510.0,706.0,542.0,2.0,201.0,22.0
0,509.0,509.0,509.0,509.0,509.0,509.0,510.0,510.0,510.0,510.0,510.0,510.0,510.0,510.0,510.0,510.0,511.0,511.0,511.0,511.0,505.0,505.0,505.0,505.0,505.0,505.0,367.0,367.0,367.0,367.0,367.0,367.0,367.0,367.0,367.0,367.0,401.0,401.0,401.0,401.0,520.0,520.0,520.0,520.0,520.0,520.0,512.0,512.0,512.0,512.0,512.0,512.0,512.0,512.0,512.0,512.0,475.0,475.0,475.0,475.0,509.5,450.7,513.3,509.0,367.0,475.0,511.0,401.0,475.0,511.0,505.0,520.0,4.0,339.0,67.0
0,510.0,511.0,511.0,511.0,511.0,511.0,511.0,511.0,511.0,511.0,511.0,511.0,511.0,511.0,511.0,511.0,511.0,511.0,511.0,511.0,367.0,401.0,401.0,401.0,401.0,401.0,401.0,401.0,401.0,401.0,401.0,401.0,401.0,401.0,0.0,0.0,0.0,0.0,0.0,0.0,512.0,475.0,475.0,475.0,475.0,475.0,475.0,475.0,475.0,475.0,475.0,475.0,475.0,475.0,439.0,439.0,439.0,439.0,439.0,439.0,510.6333333333333,321.7,482.56666666666666,510.0,0.0,439.0,511.0,0.0,439.0,511.0,401.0,512.0,1.0,401.0,73.0
0,511.0,511.0,511.0,511.0,511.0,511.0,511.0,511.0,511.0,511.0,511.0,508.0,508.0,508.0,508.0,508.0,508.0,508.0,506.0,506.0,0.0,0.0,0.0,0.0,0.0,0.0,0.0,0.0,0.0,0.0,0.0,154.0,154.0,154.0,154.0,154.0,154.0,154.0,1.0,1.0,439.0,439.0,439.0,439.0,439.0,439.0,439.0,439.0,439.0,439.0,415.0,415.0,415.0,415.0,415.0,415.0,415.0,415.0,342.0,342.0,510.5,119.23333333333333,443.4,508.0,0.0,415.0,508.0,154.0,415.0,511.0,154.0,439.0,3.0,401.0,60.0
0,508.0,508.0,508.0,506.0,506.0,506.0,506.0,506.0,506.0,506.0,506.0,506.0,506.0,506.0,506.0,504.0,504.0,504.0,504.0,504.0,154.0,154.0,154.0,1.0,1.0,1.0,1.0,1.0,1.0,1.0,1.0,1.0,1.0,1.0,1.0,32.0,32.0,32.0,32.0,32.0,415.0,415.0,415.0,342.0,342.0,342.0,342.0,342.0,342.0,342.0,342.0,342.0,342.0,342.0,342.0,340.0,340.0,340.0,340.0,340.0,507.1,45.766666666666666,377.3666666666667,504.0,1.0,340.0,504.0,32.0,340.0,508.0,154.0,415.0,7.0,154.0,99.0
0,504.0,504.0,504.0,504.0,504.0,504.0,504.0,504.0,504.0,507.0,507.0,507.0,507.0,507.0,507.0,507.0,507.0,507.0,507.0,507.0,32.0,32.0,32.0,32.0,32.0,32.0,32.0,32.0,32.0,128.0,128.0,128.0,128.0,128.0,128.0,128.0,128.0,128.0,128.0,128.0,340.0,340.0,340.0,340.0,340.0,340.0,340.0,340.0,340.0,320.0,320.0,320.0,320.0,320.0,320.0,320.0,320.0,320.0,320.0,320.0,505.46666666666664,47.266666666666666,335.3333333333333,504.0,32.0,320.0,507.0,128.0,320.0,507.0,128.0,340.0,3.0,127.0,22.0
0,507.0,507.0,507.0,507.0,507.0,507.0,507.0,507.0,507.0,507.0,507.0,506.0,506.0,506.0,506.0,506.0,506.0,506.0,506.0,506.0,128.0,128.0,128.0,128.0,128.0,128.0,128.0,128.0,128.0,128.0,128.0,164.0,164.0,164.0,164.0,164.0,164.0,164.0,164.0,164.0,320.0,320.0,320.0,320.0,320.0,320.0,320.0,320.0,320.0,320.0,320.0,264.0,264.0,264.0,264.0,264.0,264.0,264.0,264.0,264.0,506.6,135.6,303.8666666666667,506.0,128.0,264.0,506.0,164.0,264.0,507.0,164.0,320.0,3.0,132.0,76.0
0,506.0,506.0,506.0,506.0,506.0,506.0,506.0,506.0,506.0,506.0,506.0,506.0,506.0,506.0,506.0,506.0,508.0,508.0,508.0,508.0,164.0,164.0,164.0,164.0,164.0,164.0,164.0,164.0,164.0,164.0,164.0,164.0,164.0,164.0,164.0,164.0,269.0,269.0,269.0,269.0,264.0,264.0,264.0,264.0,264.0,264.0,264.0,264.0,264.0,264.0,264.0,264.0,264.0,264.0,264.0,264.0,258.0,258.0,258.0,258.0,506.46666666666664,159.0,282.26666666666665,506.0,164.0,258.0,508.0,269.0,258.0,508.0,269.0,264.0,2.0,141.0,62.0
0,508.0,508.0,508.0,508.0,508.0,508.0,508.0,508.0,508.0,508.0,508.0,508.0,505.0,505.0,505.0,505.0,505.0,505.0,505.0,505.0,269.0,269.0,269.0,269.0,269.0,269.0,269.0,269.0,269.0,269.0,269.0,269.0,363.0,363.0,363.0,363.0,363.0,363.0,363.0,363.0,258.0,258.0,258.0,258.0,258.0,258.0,258.0,258.0,258.0,258.0,258.0,258.0,276.0,276.0,276.0,276.0,276.0,276.0,276.0,276.0,506.7,259.43333333333334,264.0,505.0,269.0,258.0,505.0,363.0,276.0,508.0,363.0,276.0,3.0,199.0,18.0
0,508.0,508.0,505.0,505.0,505.0,505.0,505.0,505.0,505.0,505.0,505.0,505.0,505.0,505.0,505.0,505.0,505.0,505.0,507.0,507.0,269.0,269.0,363.0,363.0,363.0,363.0,363.0,363.0,363.0,363.0,363.0,363.0,363.0,363.0,363.0,363.0,363.0,363.0,369.0,369.0,258.0,258.0,276.0,276.0,276.0,276.0,276.0,276.0,276.0,276.0,276.0,276.0,276.0,276.0,276.0,276.0,276.0,276.0,340.0,340.0,506.2,325.4,268.8,505.0,269.0,258.0,505.0,363.0,276.0,508.0,363.0,276.0,3.0,94.0,18.0
0,507.0,507.0,507.0,507.0,507.0,507.0,507.0,507.0,507.0,507.0,507.0,507.0,507.0,507.0,507.0,507.0,507.0,507.0,507.0,507.0,369.0,369.0,369.0,369.0,369.0,369.0,369.0,369.0,369.0,369.0,529.0,529.0,529.0,529.0,529.0,529.0,529.0,529.0,529.0,529.0,340.0,340.0,340.0,340.0,340.0,340.0,340.0,340.0,340.0,340.0,417.0,417.0,417.0,417.0,417.0,417.0,417.0,417.0,417.0,417.0,506.26666666666665,409.46666666666664,337.06666666666666,507.0,369.0,340.0,507.0,529.0,417.0,507.0,529.0,417.0,2.0,166.0,141.0
0,507.0,507.0,507.0,507.0,507.0,507.0,507.0,507.0,507.0,507.0,507.0,507.0,507.0,507.0,507.0,507.0,506.0,506.0,506.0,506.0,529.0,529.0,529.0,529.0,529.0,529.0,529.0,529.0,529.0,529.0,529.0,529.0,529.0,529.0,529.0,529.0,333.0,333.0,333.0,333.0,417.0,417.0,417.0,417.0,417.0,417.0,417.0,417.0,417.0,417.0,417.0,417.0,417.0,417.0,417.0,417.0,495.0,495.0,495.0,495.0,506.8666666666667,470.8666666666667,412.0,506.0,333.0,417.0,506.0,333.0,495.0,507.0,529.0,495.0,1.0,196.0,155.0
0,506.0,506.0,506.0,506.0,506.0,506.0,506.0,506.0,506.0,506.0,506.0,509.0,509.0,509.0,509.0,509.0,509.0,509.0,509.0,509.0,333.0,333.0,333.0,333.0,333.0,333.0,333.0,333.0,333.0,333.0,333.0,375.0,375.0,375.0,375.0,375.0,375.0,375.0,375.0,375.0,495.0,495.0,495.0,495.0,495.0,495.0,495.0,495.0,495.0,495.0,495.0,595.0,595.0,595.0,595.0,595.0,595.0,595.0,595.0,595.0,507.2,404.4,501.6,506.0,333.0,495.0,509.0,375.0,595.0,509.0,375.0,595.0,3.0,196.0,178.0
0,509.0,509.0,509.0,509.0,509.0,509.0,509.0,509.0,509.0,509.0,509.0,510.0,510.0,510.0,510.0,510.0,510.0,510.0,510.0,510.0,375.0,375.0,375.0,375.0,375.0,375.0,375.0,375.0,375.0,375.0,375.0,590.0,590.0,590.0,590.0,590.0,590.0,590.0,590.0,590.0,595.0,595.0,595.0,595.0,595.0,595.0,595.0,595.0,595.0,595.0,595.0,569.0,569.0,569.0,569.0,569.0,569.0,569.0,569.0,569.0,508.9,413.8,579.8,509.0,375.0,569.0,510.0,590.0,569.0,510.0,590.0,595.0,4.0,257.0,100.0
0,510.0,510.0,510.0,510.0,510.0,510.0,510.0,510.0,510.0,511.0,511.0,511.0,511.0,511.0,511.0,511.0,511.0,511.0,511.0,511.0,590.0,590.0,590.0,590.0,590.0,590.0,590.0,590.0,590.0,343.0,343.0,343.0,343.0,343.0,343.0,343.0,343.0,343.0,343.0,343.0,569.0,569.0,569.0,569.0,569.0,569.0,569.0,569.0,494.0,494.0,494.0,494.0,494.0,494.0,494.0,494.0,494.0,494.0,494.0,494.0,510.2,479.0,547.4666666666667,510.0,343.0,494.0,511.0,343.0,494.0,511.0,590.0,569.0,2.0,247.0,101.0
0,511.0,511.0,511.0,511.0,511.0,511.0,511.0,511.0,511.0,511.0,511.0,511.0,511.0,511.0,511.0,511.0,511.0,511.0,511.0,511.0,343.0,343.0,343.0,343.0,343.0,343.0,343.0,343.0,343.0,343.0,343.0,343.0,343.0,343.0,1022.0,1022.0,1022.0,1022.0,1022.0,1022.0,494.0,494.0,494.0,494.0,494.0,494.0,494.0,494.0,494.0,494.0,494.0,494.0,494.0,494.0,513.0,513.0,513.0,513.0,513.0,513.0,510.8666666666667,443.8333333333333,505.9,511.0,343.0,494.0,511.0,1022.0,513.0,511.0,1022.0,513.0,1.0,679.0,75.0
0,511.0,511.0,511.0,511.0,511.0,511.0,511.0,511.0,511.0,511.0,511.0,511.0,511.0,511.0,511.0,512.0,512.0,512.0,512.0,512.0,343.0,1022.0,1022.0,1022.0,1022.0,1022.0,1022.0,1022.0,1022.0,1022.0,1022.0,1022.0,1022.0,1022.0,1022.0,1022.0,1022.0,1022.0,1022.0,1022.0,494.0,513.0,513.0,513.0,513.0,513.0,513.0,513.0,513.0,513.0,513.0,513.0,513.0,513.0,513.0,524.0,524.0,524.0,524.0,524.0,511.1,773.0333333333333,507.1333333333333,511.0,343.0,494.0,512.0,1022.0,524.0,512.0,1022.0,524.0,1.0,679.0,30.0
0,511.0,512.0,512.0,512.0,512.0,512.0,512.0,512.0,512.0,514.0,514.0,514.0,514.0,514.0,514.0,514.0,514.0,514.0,514.0,514.0,1022.0,1022.0,1022.0,1022.0,1022.0,1022.0,1022.0,1022.0,1022.0,252.0,252.0,252.0,252.0,252.0,252.0,252.0,252.0,252.0,252.0,252.0,513.0,524.0,524.0,524.0,524.0,524.0,524.0,524.0,524.0,498.0,498.0,498.0,498.0,498.0,498.0,498.0,498.0,498.0,498.0,498.0,512.3,765.3333333333334,511.3,511.0,252.0,498.0,514.0,252.0,498.0,514.0,1022.0,524.0,3.0,770.0,26.0
0,510.0,510.0,510.0,510.0,510.0,510.0,510.0,510.0,510.0,510.0,508.0,508.0,508.0,508.0,508.0,508.0,508.0,508.0,508.0,508.0,114.0,114.0,114.0,114.0,114.0,114.0,114.0,114.0,114.0,114.0,235.0,235.0,235.0,235.0,235.0,235.0,235.0,235.0,235.0,235.0,539.0,539.0,539.0,539.0,539.0,539.0,539.0,539.0,539.0,539.0,560.0,560.0,560.0,560.0,560.0,560.0,560.0,560.0,560.0,560.0,510.8,192.26666666666668,530.9333333333333,508.0,114.0,539.0,508.0,235.0,560.0,510.0,235.0,560.0,6.0,138.0,62.0
0,508.0,508.0,508.0,508.0,508.0,508.0,508.0,508.0,508.0,508.0,508.0,508.0,508.0,508.0,508.0,508.0,508.0,508.0,508.0,508.0,235.0,235.0,235.0,235.0,235.0,235.0,235.0,235.0,235.0,235.0,235.0,235.0,186.0,186.0,186.0,186.0,186.0,186.0,186.0,186.0,560.0,560.0,560.0,560.0,560.0,560.0,560.0,560.0,560.0,560.0,560.0,560.0,589.0,589.0,589.0,589.0,589.0,589.0,589.0,589.0,508.26666666666665,209.06666666666666,563.0,508.0,186.0,560.0,508.0,186.0,589.0,508.0,235.0,589.0,2.0,121.0,50.0
0,508.0,508.0,508.0,508.0,508.0,508.0,508.0,508.0,508.0,508.0,508.0,508.0,508.0,508.0,508.0,508.0,508.0,508.0,508.0,508.0,186.0,186.0,186.0,186.0,186.0,186.0,186.0,186.0,186.0,186.0,186.0,186.0,208.0,208.0,208.0,208.0,208.0,208.0,208.0,208.0,589.0,589.0,589.0,589.0,589.0,589.0,589.0,589.0,589.0,589.0,589.0,589.0,572.0,572.0,572.0,572.0,572.0,572.0,572.0,572.0,508.0,202.73333333333332,578.4333333333333,508.0,186.0,572.0,508.0,208.0,572.0,508.0,208.0,589.0,0.0,49.0,29.0
0,508.0,508.0,508.0,508.0,508.0,508.0,508.0,508.0,508.0,508.0,508.0,508.0,508.0,507.0,507.0,507.0,507.0,507.0,507.0,507.0,208.0,208.0,208.0,208.0,208.0,208.0,208.0,208.0,208.0,208.0,208.0,208.0,208.0,0.0,0.0,0.0,0.0,0.0,0.0,0.0,572.0,572.0,572.0,572.0,572.0,572.0,572.0,572.0,572.0,572.0,572.0,572.0,572.0,580.0,580.0,580.0,580.0,580.0,580.0,580.0,507.76666666666665,158.0,575.0,507.0,0.0,572.0,507.0,0.0,580.0,508.0,208.0,580.0,1.0,208.0,17.0
0,507.0,507.0,507.0,507.0,507.0,507.0,507.0,507.0,507.0,507.0,507.0,507.0,508.0,508.0,508.0,508.0,508.0,508.0,508.0,508.0,0.0,0.0,0.0,0.0,0.0,0.0,0.0,0.0,0.0,0.0,0.0,0.0,0.0,0.0,0.0,0.0,0.0,0.0,0.0,0.0,580.0,580.0,580.0,580.0,580.0,580.0,580.0,580.0,580.0,580.0,580.0,580.0,551.0,551.0,551.0,551.0,551.0,551.0,551.0,551.0,507.56666666666666,69.33333333333333,570.5666666666667,507.0,0.0,551.0,508.0,0.0,551.0,508.0,0.0,580.0,1.0,208.0,29.0
0,508.0,508.0,508.0,508.0,508.0,508.0,508.0,508.0,508.0,508.0,508.0,508.0,508.0,507.0,507.0,507.0,507.0,507.0,507.0,507.0,0.0,0.0,0.0,0.0,0.0,0.0,0.0,0.0,0.0,0.0,0.0,0.0,0.0,0.0,0.0,0.0,0.0,0.0,0.0,0.0,551.0,551.0,551.0,551.0,551.0,551.0,551.0,551.0,551.0,551.0,551.0,551.0,551.0,552.0,552.0,552.0,552.0,552.0,552.0,552.0,507.5,0.0,559.9,507.0,0.0,551.0,507.0,0.0,552.0,508.0,0.0,552.0,1.0,0.0,29.0
0,507.0,507.0,507.0,507.0,507.0,507.0,507.0,507.0,508.0,508.0,508.0,508.0,508.0,508.0,508.0,508.0,508.0,508.0,506.0,506.0,0.0,0.0,0.0,0.0,0.0,0.0,0.0,0.0,67.0,67.0,67.0,67.0,67.0,67.0,67.0,67.0,67.0,67.0,0.0,0.0,552.0,552.0,552.0,552.0,552.0,552.0,552.0,552.0,542.0,542.0,542.0,542.0,542.0,542.0,542.0,542.0,542.0,542.0,460.0,460.0,507.53333333333336,26.8,547.8666666666667,507.0,0.0,542.0,508.0,67.0,542.0,508.0,67.0,552.0,1.0,67.0,10.0
0,506.0,506.0,506.0,506.0,506.0,506.0,506.0,506.0,506.0,506.0,506.0,506.0,506.0,506.0,506.0,506.0,506.0,506.0,506.0,506.0,0.0,0.0,0.0,0.0,5.0,5.0,5.0,5.0,5.0,5.0,5.0,5.0,5.0,5.0,5.0,5.0,5.0,5.0,5.0,5.0,460.0,460.0,460.0,460.0,443.0,443.0,443.0,443.0,443.0,443.0,443.0,443.0,443.0,443.0,443.0,443.0,443.0,443.0,443.0,443.0,506.2,9.2,459.7,506.0,0.0,443.0,506.0,5.0,443.0,506.0,5.0,460.0,2.0,67.0,99.0
0,506.0,506.0,505.0,505.0,505.0,505.0,505.0,507.0,507.0,507.0,507.0,507.0,507.0,507.0,507.0,507.0,507.0,507.0,507.0,507.0,5.0,5.0,0.0,0.0,0.0,0.0,0.0,0.0,0.0,0.0,0.0,0.0,0.0,0.0,0.0,0.0,0.0,0.0,0.0,0.0,443.0,443.0,468.0,468.0,468.0,468.0,468.0,460.0,460.0,460.0,460.0,460.0,460.0,460.0,460.0,460.0,460.0,460.0,460.0,460.0,506.06666666666666,2.3333333333333335,453.93333333333334,505.0,0.0,443.0,507.0,0.0,460.0,507.0,5.0,468.0,2.0,5.0,25.0
0,507.0,507.0,507.0,507.0,507.0,509.0,509.0,509.0,509.0,509.0,509.0,509.0,509.0,509.0,509.0,509.0,509.0,509.0,509.0,509.0,0.0,0.0,0.0,0.0,0.0,0.0,0.0,0.0,0.0,0.0,0.0,0.0,0.0,0.0,0.0,0.0,0.0,0.0,0.0,0.0,460.0,460.0,460.0,460.0,460.0,424.0,424.0,424.0,424.0,424.0,424.0,424.0,424.0,424.0,424.0,424.0,424.0,424.0,424.0,424.0,507.8666666666667,0.0,444.4,507.0,0.0,424.0,509.0,0.0,424.0,509.0,0.0,460.0,2.0,0.0,36.0
0,509.0,509.0,509.0,509.0,509.0,509.0,509.0,509.0,509.0,506.0,506.0,506.0,506.0,506.0,506.0,506.0,506.0,506.0,506.0,506.0,0.0,0.0,0.0,0.0,0.0,0.0,0.0,0.0,0.0,0.0,0.0,0.0,0.0,0.0,0.0,0.0,0.0,0.0,0.0,0.0,424.0,424.0,424.0,424.0,424.0,424.0,424.0,424.0,424.0,385.0,385.0,385.0,385.0,385.0,385.0,379.0,379.0,379.0,379.0,379.0,507.8333333333333,0.0,414.0,506.0,0.0,379.0,506.0,0.0,379.0,509.0,0.0,424.0,3.0,0.0,81.0
0,506.0,506.0,506.0,506.0,506.0,506.0,508.0,508.0,508.0,508.0,508.0,508.0,508.0,508.0,508.0,508.0,508.0,508.0,508.0,508.0,0.0,0.0,0.0,0.0,0.0,0.0,0.0,0.0,0.0,0.0,0.0,0.0,0.0,0.0,0.0,0.0,0.0,0.0,0.0,0.0,379.0,379.0,379.0,379.0,379.0,379.0,384.0,384.0,384.0,384.0,384.0,384.0,384.0,384.0,384.0,384.0,384.0,384.0,384.0,384.0,506.93333333333334,0.0,382.1333333333333,506.0,0.0,379.0,508.0,0.0,384.0,508.0,0.0,384.0,2.0,0.0,6.0
0,510.0,511.0,511.0,511.0,511.0,511.0,511.0,511.0,511.0,511.0,511.0,511.0,511.0,511.0,511.0,511.0,511.0,511.0,511.0,511.0,131.0,1022.0,1022.0,1022.0,1022.0,1022.0,1022.0,1022.0,1022.0,1022.0,1022.0,1022.0,1022.0,1022.0,1022.0,1022.0,1022.0,1022.0,1022.0,1022.0,437.0,563.0,563.0,563.0,563.0,563.0,563.0,563.0,563.0,563.0,563.0,563.0,563.0,563.0,563.0,563.0,563.0,563.0,563.0,563.0,510.2,639.4,502.0,510.0,131.0,437.0,511.0,1022.0,563.0,511.0,1022.0,563.0,3.0,1022.0,179.0
0,511.0,511.0,511.0,511.0,511.0,511.0,511.0,511.0,511.0,511.0,511.0,510.0,510.0,510.0,510.0,510.0,510.0,510.0,510.0,510.0,1022.0,1022.0,1022.0,1022.0,1022.0,1022.0,1022.0,1022.0,1022.0,1022.0,1022.0,1022.0,1022.0,1022.0,1022.0,1022.0,1022.0,1022.0,1022.0,1022.0,563.0,563.0,563.0,563.0,563.0,563.0,563.0,563.0,563.0,563.0,563.0,571.0,571.0,571.0,571.0,571.0,568.0,568.0,568.0,568.0,510.73333333333335,1022.0,564.9333333333333,510.0,1022.0,563.0,510.0,1022.0,568.0,511.0,1022.0,571.0,1.0,0.0,8.0
0,510.0,510.0,510.0,510.0,510.0,510.0,510.0,510.0,510.0,510.0,510.0,510.0,512.0,512.0,512.0,512.0,512.0,512.0,512.0,512.0,1022.0,1022.0,1022.0,1022.0,1022.0,1022.0,1022.0,1022.0,1022.0,1022.0,1022.0,1022.0,1022.0,1022.0,1022.0,1022.0,1022.0,1022.0,1022.0,1022.0,571.0,571.0,571.0,571.0,571.0,568.0,568.0,568.0,568.0,568.0,568.0,568.0,576.0,576.0,576.0,576.0,576.0,576.0,576.0,576.0,510.76666666666665,1022.0,568.9666666666667,510.0,1022.0,568.0,512.0,1022.0,576.0,512.0,1022.0,576.0,2.0,0.0,13.0
0,512.0,512.0,512.0,512.0,512.0,512.0,512.0,512.0,512.0,512.0,512.0,512.0,512.0,512.0,512.0,512.0,512.0,514.0,514.0,514.0,1022.0,1022.0,1022.0,1022.0,1022.0,1022.0,1022.0,1022.0,1022.0,1022.0,1022.0,1022.0,1022.0,1022.0,1022.0,1022.0,1022.0,1022.0,1022.0,1022.0,576.0,576.0,576.0,576.0,576.0,576.0,576.0,576.0,576.0,576.0,576.0,576.0,576.0,576.0,576.0,576.0,576.0,600.0,600.0,600.0,511.4,1022.0,574.3333333333334,512.0,1022.0,576.0,514.0,1022.0,600.0,514.0,1022.0,600.0,4.0,0.0,32.0
0,514.0,514.0,514.0,514.0,514.0,514.0,514.0,514.0,513.0,513.0,513.0,513.0,513.0,513.0,513.0,513.0,513.0,513.0,513.0,513.0,1022.0,1022.0,1022.0,1022.0,1022.0,1022.0,1022.0,1022.0,1022.0,1022.0,1022.0,1022.0,1022.0,1022.0,1022.0,1022.0,1022.0,1022.0,1022.0,1022.0,600.0,600.0,600.0,600.0,600.0,600.0,600.0,600.0,631.0,631.0,631.0,631.0,631.0,631.0,631.0,631.0,631.0,631.0,631.0,631.0,512.9333333333333,1022.0,603.3666666666667,513.0,1022.0,600.0,513.0,1022.0,631.0,514.0,1022.0,631.0,2.0,0.0,55.0
0,513.0,513.0,513.0,513.0,513.0,513.0,513.0,513.0,513.0,511.0,511.0,511.0,511.0,511.0,508.0,508.0,508.0,508.0,508.0,508.0,1022.0,1022.0,1022.0,1022.0,1022.0,1022.0,1022.0,1022.0,1022.0,1022.0,1022.0,1022.0,1022.0,1022.0,1022.0,1022.0,1022.0,1022.0,1022.0,1022.0,631.0,631.0,631.0,631.0,631.0,631.0,631.0,631.0,631.0,629.0,629.0,629.0,629.0,629.0,616.0,616.0,616.0,616.0,616.0,616.0,511.8,1022.0,627.0666666666667,508.0,1022.0,616.0,508.0,1022.0,616.0,513.0,1022.0,631.0,6.0,0.0,31.0
0,508.0,508.0,508.0,508.0,508.0,508.0,508.0,508.0,508.0,508.0,508.0,508.0,508.0,508.0,508.0,508.0,508.0,508.0,508.0,508.0,1022.0,1022.0,1022.0,1022.0,1022.0,1022.0,1022.0,1022.0,1022.0,1022.0,1022.0,1022.0,1022.0,1022.0,1022.0,1022.0,1022.0,430.0,430.0,430.0,616.0,616.0,616.0,616.0,616.0,616.0,616.0,616.0,616.0,616.0,616.0,616.0,616.0,616.0,616.0,616.0,466.0,466.0,466.0,466.0,508.2,1022.0,616.8666666666667,508.0,1022.0,616.0,508.0,1022.0,616.0,508.0,1022.0,616.0,3.0,0.0,13.0
0,508.0,508.0,508.0,508.0,508.0,508.0,508.0,508.0,508.0,508.0,511.0,511.0,511.0,511.0,511.0,511.0,511.0,511.0,511.0,511.0,430.0,430.0,430.0,430.0,430.0,430.0,430.0,430.0,430.0,430.0,824.0,824.0,824.0,824.0,824.0,824.0,824.0,824.0,824.0,824.0,466.0,466.0,466.0,466.0,466.0,466.0,466.0,466.0,466.0,466.0,474.0,474.0,474.0,474.0,474.0,474.0,474.0,474.0,474.0,474.0,508.6,646.9333333333333,502.6,508.0,430.0,466.0,511.0,824.0,474.0,511.0,824.0,474.0,3.0,592.0,150.0
