,emg_ampl_0,emg_ampl_1,emg_ampl_2,emg_med_0,emg_med_1,emg_med_2,emg_0,emg_1,emg_2,emg_prev_0_0,emg_prev_0_1,emg_prev_0_2,emg_prev_0_3,emg_prev_0_4,emg_prev_0_5,emg_prev_0_6,emg_prev_0_7,emg_prev_0_8,emg_prev_0_9,emg_prev_0_10,emg_prev_0_11,emg_prev_0_12,emg_prev_0_13,emg_prev_0_14,emg_prev_0_15,emg_prev_0_16,emg_prev_0_17,emg_prev_0_18,emg_prev_0_19,emg_prev_1_0,emg_prev_1_1,emg_prev_1_2,emg_prev_1_3,emg_prev_1_4,emg_prev_1_5,emg_prev_1_6,emg_prev_1_7,emg_prev_1_8,emg_prev_1_9,emg_prev_1_10,emg_prev_1_11,emg_prev_1_12,emg_prev_1_13,emg_prev_1_14,emg_prev_1_15,emg_prev_1_16,emg_prev_1_17,emg_prev_1_18,emg_prev_1_19,emg_prev_2_0,emg_prev_2_1,emg_prev_2_2,emg_prev_2_3,emg_prev_2_4,emg_prev_2_5,emg_prev_2_6,emg_prev_2_7,emg_prev_2_8,emg_prev_2_9,emg_prev_2_10,emg_prev_2_11,emg_prev_2_12,emg_prev_2_13,emg_prev_2_14,emg_prev_2_15,emg_prev_2_16,emg_prev_2_17,emg_prev_2_18,emg_prev_2_19,emg_min_0,emg_min_1,emg_min_2,emg_max_0,emg_max_1,emg_max_2
0,4.0,5.0,3.0,509.6,501.1666666666667,507.73333333333335,500,500,500,509.0,509.0,509.0,509.0,509.0,509.0,509.0,509.0,509.0,509.0,509.0,509.0,509.0,509.0,509.0,507.0,507.0,507.0,507.0,507.0,501.0,501.0,501.0,501.0,501.0,501.0,501.0,501.0,501.0,501.0,501.0,501.0,501.0,501.0,501.0,506.0,506.0,506.0,506.0,506.0,508.0,508.0,508.0,508.0,508.0,508.0,508.0,508.0,508.0,508.0,508.0,508.0,508.0,508.0,508.0,510.0,510.0,510.0,510.0,510.0,507.0,501.0,508.0,509.0,506.0,510.0
0,4.0,5.0,0.0,505.26666666666665,508.3333333333333,510.0,500,500,500,507.0,507.0,507.0,507.0,507.0,503.0,503.0,503.0,503.0,503.0,503.0,503.0,503.0,503.0,503.0,503.0,503.0,503.0,503.0,503.0,506.0,506.0,506.0,506.0,506.0,511.0,511.0,511.0,511.0,511.0,511.0,511.0,511.0,511.0,511.0,511.0,511.0,511.0,511.0,511.0,510.0,510.0,510.0,510.0,510.0,510.0,510.0,510.0,510.0,510.0,510.0,510.0,510.0,510.0,510.0,510.0,510.0,510.0,510.0,510.0,503.0,506.0,510.0,507.0,511.0,510.0
0,3.0,6.0,1.0,501.8,512.3333333333334,509.8666666666667,500,500,500,503.0,503.0,503.0,503.0,503.0,503.0,503.0,503.0,500.0,500.0,500.0,500.0,500.0,500.0,500.0,500.0,500.0,500.0,500.0,500.0,511.0,511.0,511.0,511.0,511.0,511.0,511.0,511.0,513.0,513.0,513.0,513.0,513.0,513.0,517.0,517.0,517.0,517.0,517.0,517.0,510.0,510.0,510.0,510.0,510.0,510.0,510.0,510.0,510.0,510.0,510.0,510.0,510.0,510.0,509.0,509.0,509.0,509.0,509.0,509.0,500.0,511.0,509.0,503.0,517.0,510.0
0,1.0,7.0,1.0,500.2,515.0666666666667,509.3333333333333,500,500,500,500.0,500.0,500.0,500.0,500.0,500.0,500.0,500.0,500.0,500.0,500.0,500.0,500.0,501.0,501.0,501.0,501.0,501.0,501.0,501.0,517.0,517.0,517.0,517.0,517.0,517.0,517.0,517.0,517.0,517.0,517.0,517.0,517.0,510.0,510.0,510.0,510.0,510.0,510.0,510.0,509.0,509.0,509.0,509.0,509.0,509.0,509.0,509.0,509.0,509.0,509.0,509.0,509.0,510.0,510.0,510.0,510.0,510.0,510.0,510.0,500.0,510.0,509.0,501.0,517.0,510.0
0,4.0,11.0,1.0,501.96666666666664,509.46666666666664,509.5,500,500,500,501.0,501.0,501.0,501.0,501.0,501.0,501.0,501.0,504.0,504.0,504.0,504.0,504.0,504.0,504.0,504.0,504.0,504.0,504.0,504.0,510.0,510.0,510.0,510.0,510.0,510.0,510.0,510.0,506.0,506.0,506.0,506.0,506.0,506.0,506.0,506.0,506.0,506.0,506.0,506.0,510.0,510.0,510.0,510.0,510.0,510.0,510.0,510.0,509.0,509.0,509.0,509.0,509.0,509.0,509.0,509.0,509.0,509.0,509.0,509.0,501.0,506.0,509.0,504.0,510.0,510.0
0,4.0,6.0,5.0,504.06666666666666,505.6,510.0,500,500,500,504.0,504.0,504.0,504.0,504.0,504.0,504.0,504.0,504.0,504.0,504.0,504.0,505.0,505.0,505.0,505.0,505.0,505.0,505.0,505.0,506.0,506.0,506.0,506.0,506.0,506.0,506.0,506.0,506.0,506.0,506.0,506.0,504.0,504.0,504.0,504.0,504.0,504.0,504.0,504.0,509.0,509.0,509.0,509.0,509.0,509.0,509.0,509.0,509.0,509.0,509.0,509.0,514.0,514.0,514.0,514.0,514.0,514.0,514.0,514.0,504.0,504.0,509.0,505.0,506.0,514.0
0,1.0,2.0,5.0,504.96666666666664,504.46666666666664,512.2333333333333,500,500,500,505.0,505.0,505.0,505.0,505.0,505.0,505.0,505.0,505.0,505.0,505.0,505.0,505.0,505.0,505.0,505.0,505.0,505.0,505.0,505.0,504.0,504.0,504.0,504.0,504.0,504.0,505.0,505.0,505.0,505.0,505.0,505.0,505.0,505.0,505.0,505.0,505.0,505.0,505.0,505.0,514.0,514.0,514.0,514.0,514.0,514.0,510.0,510.0,510.0,510.0,510.0,510.0,510.0,510.0,510.0,510.0,510.0,510.0,510.0,510.0,505.0,504.0,510.0,505.0,505.0,514.0
0,0.0,2.0,10.0,505.0,504.8666666666667,510.4,500,500,500,505.0,505.0,505.0,505.0,505.0,505.0,505.0,505.0,505.0,505.0,505.0,505.0,505.0,505.0,505.0,505.0,505.0,505.0,505.0,505.0,505.0,505.0,505.0,505.0,505.0,505.0,505.0,505.0,505.0,505.0,505.0,505.0,505.0,505.0,505.0,505.0,505.0,505.0,506.0,506.0,510.0,510.0,510.0,510.0,510.0,510.0,510.0,510.0,510.0,510.0,510.0,510.0,510.0,510.0,510.0,510.0,510.0,510.0,504.0,504.0,505.0,505.0,504.0,505.0,506.0,510.0
0,0.0,1.0,6.0,505.0,505.5,507.0,500,500,500,505.0,505.0,505.0,505.0,505.0,505.0,505.0,505.0,505.0,505.0,505.0,505.0,505.0,505.0,505.0,505.0,505.0,505.0,505.0,510.0,505.0,505.0,505.0,505.0,505.0,506.0,506.0,506.0,506.0,506.0,506.0,506.0,506.0,506.0,506.0,506.0,506.0,506.0,506.0,508.0,510.0,510.0,510.0,510.0,510.0,504.0,504.0,504.0,504.0,504.0,504.0,504.0,504.0,504.0,504.0,504.0,504.0,504.0,504.0,502.0,505.0,505.0,504.0,505.0,506.0,510.0
0,6.0,2.0,6.0,508.46666666666664,507.2,502.1333333333333,500,500,500,510.0,510.0,510.0,510.0,510.0,510.0,510.0,510.0,510.0,510.0,510.0,510.0,510.0,510.0,510.0,510.0,511.0,511.0,511.0,511.0,508.0,508.0,508.0,508.0,508.0,508.0,508.0,508.0,508.0,508.0,508.0,508.0,508.0,508.0,508.0,508.0,507.0,507.0,507.0,507.0,502.0,502.0,502.0,502.0,502.0,502.0,502.0,502.0,502.0,502.0,502.0,502.0,502.0,502.0,502.0,502.0,498.0,498.0,498.0,498.0,510.0,507.0,498.0,511.0,508.0,502.0
0,2.0,1.0,8.0,510.4,507.26666666666665,500.4,500,500,500,511.0,511.0,511.0,511.0,511.0,511.0,511.0,511.0,511.0,511.0,511.0,511.0,509.0,509.0,509.0,509.0,509.0,509.0,509.0,509.0,507.0,507.0,507.0,507.0,507.0,507.0,507.0,507.0,507.0,507.0,507.0,507.0,507.0,507.0,507.0,507.0,507.0,507.0,507.0,507.0,498.0,498.0,498.0,498.0,498.0,498.0,498.0,498.0,498.0,498.0,498.0,498.0,506.0,506.0,506.0,506.0,506.0,506.0,506.0,506.0,509.0,507.0,498.0,511.0,507.0,506.0
0,3.0,7.0,8.0,509.8,508.8666666666667,508.1333333333333,500,500,500,509.0,509.0,509.0,509.0,509.0,509.0,509.0,509.0,509.0,509.0,509.0,509.0,512.0,512.0,512.0,512.0,512.0,512.0,512.0,512.0,507.0,507.0,507.0,507.0,507.0,507.0,507.0,507.0,507.0,507.0,507.0,507.0,514.0,514.0,514.0,514.0,514.0,514.0,514.0,514.0,506.0,506.0,506.0,506.0,506.0,506.0,506.0,506.0,506.0,506.0,506.0,506.0,514.0,514.0,514.0,514.0,514.0,514.0,514.0,514.0,509.0,507.0,506.0,512.0,514.0,514.0
0,4.0,7.0,11.0,511.2,511.26666666666665,511.93333333333334,500,500,500,512.0,512.0,512.0,512.0,512.0,512.0,512.0,512.0,512.0,512.0,512.0,512.0,512.0,512.0,513.0,513.0,513.0,513.0,513.0,513.0,514.0,514.0,514.0,514.0,514.0,514.0,514.0,514.0,514.0,514.0,514.0,514.0,514.0,514.0,512.0,512.0,512.0,512.0,512.0,512.0,514.0,514.0,514.0,514.0,514.0,514.0,514.0,514.0,514.0,514.0,514.0,514.0,514.0,514.0,517.0,517.0,517.0,517.0,517.0,517.0,512.0,512.0,514.0,513.0,514.0,517.0
0,4.0,3.0,3.0,512.0666666666667,512.6666666666666,515.5333333333333,500,500,500,512.0,512.0,513.0,513.0,513.0,513.0,513.0,513.0,513.0,513.0,513.0,513.0,513.0,513.0,513.0,509.0,509.0,509.0,509.0,509.0,514.0,514.0,512.0,512.0,512.0,512.0,512.0,512.0,512.0,512.0,512.0,512.0,512.0,512.0,512.0,511.0,511.0,511.0,511.0,511.0,514.0,514.0,517.0,517.0,517.0,517.0,517.0,517.0,517.0,517.0,517.0,517.0,517.0,517.0,517.0,515.0,515.0,515.0,515.0,515.0,509.0,511.0,514.0,513.0,514.0,517.0
0,4.0,5.0,5.0,510.2,511.03333333333336,515.4,500,500,500,509.0,509.0,509.0,509.0,509.0,509.0,509.0,509.0,509.0,509.0,509.0,509.0,509.0,509.0,509.0,509.0,509.0,509.0,509.0,509.0,511.0,511.0,511.0,511.0,511.0,511.0,511.0,511.0,511.0,511.0,511.0,511.0,511.0,511.0,511.0,511.0,507.0,507.0,507.0,507.0,515.0,515.0,515.0,515.0,515.0,515.0,515.0,515.0,515.0,515.0,515.0,515.0,515.0,515.0,515.0,515.0,512.0,512.0,512.0,512.0,509.0,507.0,512.0,509.0,511.0,515.0
0,4.0,5.0,5.0,509.1333333333333,509.7,514.0666666666667,500,500,500,509.0,509.0,509.0,509.0,509.0,509.0,509.0,509.0,509.0,509.0,509.0,509.0,509.0,509.0,509.0,509.0,509.0,509.0,509.0,508.0,511.0,511.0,511.0,511.0,511.0,511.0,511.0,511.0,511.0,507.0,507.0,507.0,507.0,507.0,507.0,507.0,507.0,507.0,507.0,503.0,515.0,515.0,515.0,515.0,515.0,515.0,515.0,515.0,515.0,512.0,512.0,512.0,512.0,512.0,512.0,512.0,512.0,512.0,512.0,511.0,509.0,507.0,512.0,509.0,511.0,515.0
0,2.0,6.0,9.0,508.46666666666664,504.2,510.8,500,500,500,508.0,508.0,508.0,508.0,508.0,508.0,508.0,508.0,508.0,508.0,508.0,508.0,508.0,508.0,508.0,508.0,508.0,508.0,510.0,510.0,503.0,503.0,503.0,503.0,503.0,503.0,503.0,503.0,503.0,503.0,503.0,503.0,503.0,503.0,503.0,503.0,503.0,503.0,501.0,501.0,511.0,511.0,511.0,511.0,511.0,511.0,511.0,511.0,511.0,511.0,511.0,511.0,511.0,511.0,511.0,511.0,511.0,511.0,503.0,503.0,508.0,501.0,503.0,510.0,503.0,511.0
0,2.0,2.0,8.0,509.1,501.9,505.1333333333333,500,500,500,510.0,510.0,510.0,510.0,510.0,510.0,510.0,509.0,509.0,509.0,509.0,509.0,509.0,509.0,509.0,509.0,509.0,509.0,509.0,509.0,501.0,501.0,501.0,501.0,501.0,501.0,501.0,502.0,502.0,502.0,502.0,502.0,502.0,502.0,502.0,502.0,502.0,502.0,502.0,502.0,503.0,503.0,503.0,503.0,503.0,503.0,503.0,503.0,503.0,503.0,503.0,503.0,503.0,503.0,503.0,503.0,503.0,503.0,503.0,503.0,509.0,501.0,503.0,510.0,502.0,503.0
0,1.0,1.0,0.0,509.23333333333335,501.76666666666665,503.0,500,500,500,509.0,509.0,509.0,509.0,509.0,509.0,509.0,509.0,509.0,509.0,509.0,509.0,509.0,509.0,509.0,509.0,509.0,507.0,507.0,507.0,502.0,502.0,502.0,502.0,502.0,502.0,502.0,502.0,502.0,502.0,502.0,502.0,502.0,502.0,502.0,502.0,502.0,503.0,503.0,503.0,503.0,503.0,503.0,503.0,503.0,503.0,503.0,503.0,503.0,503.0,503.0,503.0,503.0,503.0,503.0,503.0,503.0,511.0,511.0,511.0,509.0,502.0,503.0,509.0,502.0,503.0
0,2.0,2.0,8.0,507.26666666666665,503.2,509.93333333333334,500,500,500,507.0,507.0,507.0,507.0,507.0,507.0,507.0,507.0,507.0,507.0,507.0,507.0,507.0,507.0,507.0,507.0,507.0,507.0,507.0,507.0,503.0,503.0,503.0,503.0,503.0,503.0,503.0,503.0,503.0,504.0,504.0,504.0,504.0,504.0,504.0,504.0,504.0,504.0,504.0,504.0,511.0,511.0,511.0,511.0,511.0,511.0,511.0,511.0,511.0,511.0,511.0,511.0,511.0,511.0,511.0,511.0,511.0,511.0,511.0,511.0,507.0,503.0,511.0,507.0,504.0,511.0
0,3.0,1.0,6.0,506.9,503.6333333333333,511.2,500,500,500,507.0,507.0,507.0,507.0,507.0,507.0,507.0,507.0,507.0,507.0,507.0,507.0,507.0,507.0,507.0,507.0,507.0,504.0,504.0,504.0,504.0,504.0,504.0,504.0,504.0,504.0,504.0,504.0,504.0,504.0,504.0,504.0,504.0,504.0,504.0,504.0,504.0,503.0,503.0,503.0,511.0,511.0,511.0,511.0,511.0,511.0,511.0,511.0,511.0,511.0,511.0,511.0,511.0,511.0,511.0,511.0,511.0,517.0,517.0,517.0,504.0,503.0,511.0,507.0,504.0,517.0
0,3.0,1.0,6.0,505.9,503.6333333333333,513.2,500,500,500,507.0,507.0,507.0,507.0,507.0,507.0,507.0,507.0,507.0,504.0,504.0,504.0,504.0,504.0,504.0,504.0,504.0,504.0,504.0,505.0,504.0,504.0,504.0,504.0,504.0,504.0,504.0,504.0,504.0,503.0,503.0,503.0,503.0,503.0,503.0,503.0,503.0,503.0,503.0,507.0,511.0,511.0,511.0,511.0,511.0,511.0,511.0,511.0,511.0,517.0,517.0,517.0,517.0,517.0,517.0,517.0,517.0,517.0,517.0,517.0,504.0,503.0,511.0,507.0,504.0,517.0
0,3.0,6.0,2.0,504.76666666666665,505.6666666666667,516.8666666666667,500,500,500,504.0,505.0,505.0,505.0,505.0,505.0,505.0,505.0,505.0,505.0,505.0,505.0,505.0,505.0,505.0,505.0,505.0,507.0,507.0,507.0,503.0,507.0,507.0,507.0,507.0,507.0,507.0,507.0,507.0,507.0,507.0,507.0,507.0,507.0,507.0,507.0,507.0,509.0,509.0,509.0,517.0,517.0,517.0,517.0,517.0,517.0,517.0,517.0,517.0,517.0,517.0,517.0,517.0,517.0,517.0,517.0,517.0,515.0,515.0,515.0,504.0,503.0,515.0,507.0,509.0,517.0
0,3.0,6.0,2.0,505.46666666666664,507.06666666666666,516.4,500,500,500,505.0,505.0,505.0,505.0,505.0,505.0,505.0,505.0,505.0,505.0,507.0,507.0,507.0,507.0,507.0,507.0,507.0,507.0,507.0,507.0,507.0,507.0,507.0,507.0,507.0,507.0,507.0,507.0,507.0,507.0,509.0,509.0,509.0,509.0,509.0,509.0,509.0,509.0,509.0,509.0,517.0,517.0,517.0,517.0,517.0,517.0,517.0,517.0,517.0,517.0,515.0,515.0,515.0,515.0,515.0,515.0,515.0,515.0,515.0,515.0,505.0,507.0,515.0,507.0,509.0,517.0
0,5.0,8.0,5.0,505.5,510.26666666666665,514.7,500,500,500,507.0,507.0,507.0,507.0,507.0,507.0,507.0,505.0,505.0,505.0,505.0,505.0,505.0,505.0,505.0,505.0,505.0,502.0,502.0,502.0,509.0,509.0,509.0,509.0,509.0,509.0,509.0,512.0,512.0,512.0,512.0,512.0,512.0,512.0,512.0,512.0,512.0,515.0,515.0,515.0,515.0,515.0,515.0,515.0,515.0,515.0,515.0,514.0,514.0,514.0,514.0,514.0,514.0,514.0,514.0,514.0,514.0,512.0,512.0,512.0,502.0,509.0,512.0,507.0,515.0,515.0
0,6.0,6.0,3.0,503.0,513.1333333333333,513.1,500,500,500,505.0,502.0,502.0,502.0,502.0,502.0,502.0,502.0,502.0,502.0,502.0,502.0,502.0,502.0,502.0,501.0,501.0,501.0,501.0,501.0,512.0,515.0,515.0,515.0,515.0,515.0,515.0,515.0,515.0,515.0,515.0,515.0,515.0,515.0,515.0,511.0,511.0,511.0,511.0,511.0,514.0,512.0,512.0,512.0,512.0,512.0,512.0,512.0,512.0,512.0,512.0,512.0,512.0,512.0,512.0,514.0,514.0,514.0,514.0,514.0,501.0,511.0,512.0,505.0,515.0,514.0
0,4.0,5.0,2.0,503.03333333333336,510.6333333333333,513.4333333333333,500,500,500,501.0,501.0,501.0,505.0,505.0,505.0,505.0,505.0,505.0,505.0,505.0,505.0,505.0,505.0,505.0,505.0,505.0,505.0,505.0,510.0,511.0,511.0,511.0,510.0,510.0,510.0,510.0,510.0,510.0,510.0,510.0,510.0,510.0,510.0,510.0,510.0,510.0,510.0,510.0,505.0,514.0,514.0,514.0,513.0,513.0,513.0,513.0,513.0,513.0,513.0,513.0,513.0,513.0,513.0,513.0,513.0,513.0,513.0,513.0,512.0,501.0,510.0,513.0,505.0,511.0,514.0
0,5.0,5.0,6.0,507.8333333333333,506.6666666666667,510.5,500,500,500,510.0,510.0,510.0,510.0,510.0,510.0,510.0,509.0,509.0,509.0,509.0,509.0,509.0,509.0,509.0,509.0,509.0,509.0,509.0,509.0,505.0,505.0,505.0,505.0,505.0,505.0,505.0,505.0,505.0,505.0,505.0,505.0,505.0,505.0,505.0,505.0,505.0,505.0,505.0,505.0,512.0,512.0,512.0,512.0,512.0,512.0,512.0,507.0,507.0,507.0,507.0,507.0,507.0,507.0,507.0,507.0,507.0,507.0,507.0,507.0,509.0,505.0,507.0,510.0,505.0,512.0
0,2.0,1.0,0.0,509.6666666666667,505.3333333333333,507.0,500,500,500,509.0,509.0,509.0,509.0,509.0,509.0,509.0,511.0,511.0,511.0,511.0,511.0,511.0,511.0,511.0,511.0,511.0,511.0,511.0,511.0,505.0,505.0,505.0,505.0,505.0,505.0,505.0,506.0,506.0,506.0,506.0,506.0,506.0,506.0,506.0,506.0,506.0,506.0,506.0,506.0,507.0,507.0,507.0,507.0,507.0,507.0,507.0,507.0,507.0,507.0,507.0,507.0,507.0,507.0,507.0,507.0,507.0,507.0,507.0,507.0,509.0,505.0,507.0,511.0,506.0,507.0
0,2.0,2.0,4.0,510.46666666666664,506.3,508.46666666666664,500,500,500,511.0,511.0,511.0,511.0,511.0,511.0,511.0,510.0,510.0,510.0,510.0,510.0,510.0,510.0,510.0,510.0,510.0,510.0,510.0,510.0,506.0,506.0,506.0,506.0,506.0,506.0,506.0,507.0,507.0,507.0,507.0,507.0,507.0,507.0,507.0,507.0,507.0,507.0,507.0,507.0,507.0,507.0,507.0,507.0,507.0,507.0,507.0,511.0,511.0,511.0,511.0,511.0,511.0,511.0,511.0,511.0,511.0,511.0,511.0,511.0,510.0,506.0,507.0,511.0,507.0,511.0
0,1.0,4.0,5.0,510.1333333333333,507.1666666666667,510.56666666666666,500,500,500,510.0,510.0,510.0,510.0,510.0,510.0,510.0,510.0,510.0,510.0,510.0,510.0,510.0,510.0,510.0,510.0,510.0,510.0,510.0,510.0,507.0,507.0,507.0,507.0,507.0,507.0,507.0,507.0,507.0,507.0,507.0,507.0,507.0,507.0,507.0,507.0,510.0,510.0,510.0,510.0,511.0,511.0,511.0,511.0,511.0,511.0,511.0,511.0,511.0,511.0,511.0,511.0,511.0,511.0,511.0,511.0,512.0,512.0,512.0,512.0,510.0,507.0,511.0,510.0,510.0,512.0
0,2.0,3.0,4.0,510.26666666666665,508.73333333333335,512.0666666666667,500,500,500,510.0,510.0,510.0,510.0,510.0,510.0,510.0,510.0,510.0,510.0,510.0,510.0,510.0,510.0,510.0,510.0,512.0,512.0,512.0,512.0,510.0,510.0,510.0,510.0,510.0,510.0,510.0,510.0,510.0,510.0,510.0,510.0,510.0,510.0,510.0,510.0,508.0,508.0,508.0,508.0,512.0,512.0,512.0,512.0,512.0,512.0,512.0,512.0,512.0,512.0,512.0,512.0,512.0,512.0,512.0,512.0,515.0,515.0,515.0,515.0,510.0,508.0,512.0,512.0,510.0,515.0
0,2.0,3.0,4.0,510.8666666666667,509.03333333333336,513.2666666666667,500,500,500,510.0,510.0,510.0,510.0,510.0,510.0,510.0,512.0,512.0,512.0,512.0,512.0,512.0,512.0,512.0,512.0,512.0,512.0,512.0,512.0,510.0,510.0,510.0,510.0,510.0,510.0,510.0,508.0,508.0,508.0,508.0,508.0,508.0,508.0,508.0,508.0,508.0,508.0,508.0,508.0,512.0,512.0,512.0,512.0,512.0,512.0,512.0,515.0,515.0,515.0,515.0,515.0,515.0,515.0,515.0,515.0,515.0,515.0,515.0,515.0,510.0,508.0,512.0,512.0,510.0,515.0
0,1.0,7.0,5.0,512.2,510.73333333333335,514.0,500,500,500,512.0,512.0,512.0,512.0,512.0,512.0,512.0,512.0,512.0,512.0,512.0,512.0,512.0,513.0,513.0,513.0,513.0,513.0,513.0,513.0,508.0,508.0,508.0,508.0,512.0,512.0,512.0,512.0,512.0,512.0,512.0,512.0,512.0,515.0,515.0,515.0,515.0,515.0,515.0,515.0,515.0,515.0,515.0,515.0,515.0,515.0,515.0,515.0,515.0,515.0,515.0,515.0,515.0,510.0,510.0,510.0,510.0,510.0,510.0,510.0,512.0,508.0,510.0,513.0,515.0,515.0
0,3.0,3.0,6.0,512.5666666666667,514.3,511.1,500,500,500,513.0,513.0,513.0,513.0,513.0,513.0,513.0,513.0,513.0,513.0,513.0,513.0,513.0,513.0,513.0,513.0,513.0,510.0,510.0,510.0,515.0,515.0,515.0,515.0,515.0,515.0,515.0,515.0,515.0,515.0,515.0,515.0,515.0,515.0,515.0,515.0,515.0,515.0,515.0,515.0,510.0,510.0,510.0,510.0,510.0,510.0,510.0,510.0,510.0,510.0,510.0,510.0,510.0,510.0,510.0,510.0,510.0,509.0,509.0,509.0,510.0,515.0,509.0,513.0,515.0,510.0
0,3.0,2.0,3.0,511.4,514.8,509.76666666666665,500,500,500,513.0,513.0,510.0,510.0,510.0,510.0,510.0,510.0,510.0,510.0,510.0,510.0,510.0,510.0,510.0,510.0,510.0,510.0,510.0,510.0,515.0,515.0,515.0,515.0,515.0,515.0,515.0,515.0,515.0,515.0,515.0,515.0,515.0,515.0,513.0,513.0,513.0,513.0,513.0,513.0,510.0,509.0,509.0,509.0,509.0,509.0,509.0,509.0,509.0,509.0,509.0,509.0,509.0,509.0,512.0,512.0,512.0,512.0,512.0,512.0,510.0,513.0,509.0,513.0,515.0,512.0
0,0.0,7.0,5.0,510.0,512.0,510.1666666666667,500,500,500,510.0,510.0,510.0,510.0,510.0,510.0,510.0,510.0,510.0,510.0,510.0,510.0,510.0,510.0,510.0,510.0,510.0,510.0,510.0,510.0,513.0,513.0,513.0,513.0,513.0,513.0,513.0,513.0,513.0,513.0,508.0,508.0,508.0,508.0,508.0,508.0,508.0,508.0,508.0,508.0,512.0,512.0,512.0,512.0,512.0,512.0,512.0,512.0,512.0,512.0,507.0,507.0,507.0,507.0,507.0,507.0,507.0,507.0,507.0,507.0,510.0,508.0,507.0,510.0,513.0,512.0
0,1.0,10.0,5.0,510.03333333333336,509.0,508.23333333333335,500,500,500,510.0,510.0,510.0,510.0,510.0,510.0,510.0,510.0,510.0,510.0,510.0,510.0,510.0,510.0,510.0,510.0,511.0,511.0,511.0,511.0,508.0,508.0,508.0,508.0,508.0,508.0,508.0,508.0,508.0,508.0,508.0,508.0,508.0,508.0,508.0,508.0,503.0,503.0,503.0,503.0,507.0,507.0,507.0,507.0,507.0,507.0,507.0,507.0,507.0,507.0,507.0,507.0,507.0,507.0,507.0,507.0,509.0,509.0,509.0,509.0,510.0,503.0,507.0,511.0,508.0,509.0
0,0.0,7.0,2.0,511.0,500.43333333333334,509.73333333333335,500,500,500,511.0,511.0,511.0,511.0,511.0,511.0,511.0,511.0,511.0,511.0,511.0,511.0,511.0,511.0,511.0,511.0,511.0,511.0,511.0,511.0,503.0,503.0,503.0,503.0,503.0,503.0,503.0,496.0,496.0,496.0,496.0,496.0,496.0,496.0,496.0,496.0,496.0,496.0,496.0,496.0,509.0,509.0,509.0,509.0,509.0,509.0,509.0,511.0,511.0,511.0,511.0,511.0,511.0,511.0,511.0,511.0,511.0,511.0,511.0,511.0,511.0,496.0,509.0,511.0,503.0,511.0
0,2.0,7.0,2.0,511.3333333333333,497.1,510.56666666666666,500,500,500,511.0,511.0,511.0,511.0,511.0,511.0,511.0,511.0,511.0,511.0,511.0,511.0,511.0,511.0,511.0,513.0,513.0,513.0,513.0,513.0,496.0,496.0,496.0,496.0,496.0,496.0,496.0,496.0,496.0,496.0,496.0,496.0,496.0,496.0,496.0,497.0,497.0,497.0,497.0,503.0,511.0,511.0,511.0,511.0,511.0,511.0,511.0,511.0,511.0,511.0,511.0,511.0,511.0,511.0,511.0,510.0,510.0,510.0,510.0,514.0,511.0,496.0,510.0,513.0,497.0,511.0
0,7.0,10.0,5.0,510.73333333333335,501.4,513.0,500,500,500,513.0,513.0,513.0,513.0,513.0,513.0,513.0,513.0,513.0,513.0,513.0,513.0,506.0,506.0,506.0,506.0,506.0,506.0,506.0,506.0,497.0,503.0,503.0,503.0,503.0,503.0,503.0,503.0,503.0,503.0,503.0,503.0,506.0,506.0,506.0,506.0,506.0,506.0,506.0,506.0,510.0,514.0,514.0,514.0,514.0,514.0,514.0,514.0,514.0,514.0,514.0,514.0,515.0,515.0,515.0,515.0,515.0,515.0,515.0,515.0,506.0,497.0,510.0,513.0,506.0,515.0
0,8.0,5.0,3.0,508.26666666666665,505.1333333333333,514.4666666666667,500,500,500,506.0,506.0,506.0,506.0,506.0,506.0,506.0,506.0,506.0,506.0,506.0,506.0,506.0,506.0,506.0,506.0,506.0,506.0,505.0,505.0,506.0,506.0,506.0,506.0,506.0,506.0,506.0,506.0,506.0,506.0,506.0,506.0,506.0,506.0,506.0,506.0,506.0,506.0,508.0,508.0,515.0,515.0,515.0,515.0,515.0,515.0,515.0,515.0,515.0,515.0,515.0,515.0,515.0,515.0,515.0,515.0,515.0,515.0,512.0,512.0,505.0,506.0,512.0,506.0,508.0,515.0
0,1.0,2.0,3.0,505.3,507.06666666666666,512.9,500,500,500,505.0,505.0,505.0,505.0,505.0,505.0,505.0,505.0,505.0,505.0,505.0,505.0,505.0,505.0,505.0,505.0,505.0,505.0,505.0,505.0,508.0,508.0,508.0,508.0,508.0,508.0,508.0,508.0,508.0,508.0,507.0,507.0,507.0,507.0,507.0,507.0,507.0,507.0,507.0,507.0,512.0,512.0,512.0,512.0,512.0,512.0,512.0,512.0,512.0,512.0,512.0,512.0,512.0,512.0,512.0,512.0,512.0,512.0,512.0,512.0,505.0,507.0,512.0,505.0,508.0,512.0
0,1.0,8.0,3.0,505.1333333333333,508.3,512.0666666666667,500,500,500,505.0,505.0,505.0,505.0,505.0,505.0,505.0,505.0,505.0,505.0,505.0,505.0,505.0,506.0,506.0,506.0,506.0,501.0,501.0,501.0,507.0,507.0,507.0,507.0,507.0,507.0,507.0,507.0,507.0,507.0,507.0,507.0,507.0,514.0,514.0,514.0,514.0,517.0,517.0,517.0,512.0,512.0,512.0,512.0,512.0,512.0,512.0,512.0,512.0,512.0,512.0,512.0,512.0,512.0,512.0,512.0,512.0,514.0,514.0,514.0,501.0,507.0,512.0,506.0,517.0,514.0
0,6.0,11.0,3.0,502.03333333333336,515.4333333333333,513.6333333333333,500,500,500,501.0,501.0,501.0,501.0,501.0,501.0,501.0,501.0,501.0,501.0,501.0,501.0,501.0,501.0,501.0,500.0,500.0,500.0,500.0,500.0,517.0,517.0,517.0,517.0,517.0,517.0,517.0,517.0,517.0,517.0,517.0,517.0,517.0,517.0,517.0,518.0,518.0,518.0,518.0,518.0,514.0,514.0,514.0,514.0,514.0,514.0,514.0,514.0,514.0,514.0,514.0,514.0,514.0,514.0,514.0,515.0,515.0,515.0,515.0,515.0,500.0,517.0,514.0,501.0,518.0,515.0
0,2.0,7.0,3.0,500.8,516.3666666666667,514.8666666666667,500,500,500,501.0,501.0,501.0,501.0,500.0,500.0,500.0,500.0,500.0,500.0,500.0,500.0,500.0,500.0,502.0,502.0,502.0,502.0,502.0,502.0,517.0,517.0,517.0,517.0,518.0,518.0,518.0,518.0,518.0,518.0,518.0,518.0,518.0,518.0,511.0,511.0,511.0,511.0,511.0,511.0,514.0,514.0,514.0,514.0,515.0,515.0,515.0,515.0,515.0,515.0,515.0,515.0,515.0,515.0,517.0,517.0,517.0,517.0,517.0,517.0,500.0,511.0,514.0,502.0,518.0,517.0
0,2.0,7.0,5.0,501.8,512.0,515.3,500,500,500,502.0,502.0,502.0,502.0,502.0,502.0,502.0,502.0,502.0,502.0,502.0,502.0,502.0,502.0,502.0,502.0,502.0,502.0,502.0,502.0,511.0,511.0,511.0,511.0,511.0,511.0,511.0,511.0,512.0,512.0,512.0,512.0,512.0,512.0,512.0,512.0,512.0,512.0,512.0,512.0,517.0,517.0,517.0,517.0,517.0,517.0,517.0,517.0,512.0,512.0,512.0,512.0,512.0,512.0,512.0,512.0,512.0,512.0,512.0,512.0,502.0,511.0,512.0,502.0,512.0,517.0
0,7.0,14.0,3.0,505.3666666666667,518.7333333333333,510.3,500,500,500,502.0,502.0,502.0,506.0,506.0,506.0,506.0,506.0,509.0,509.0,509.0,509.0,509.0,509.0,509.0,509.0,509.0,509.0,509.0,509.0,512.0,512.0,512.0,520.0,520.0,520.0,520.0,520.0,526.0,526.0,526.0,526.0,526.0,526.0,526.0,526.0,526.0,526.0,526.0,526.0,512.0,512.0,512.0,509.0,509.0,509.0,509.0,509.0,509.0,509.0,509.0,509.0,509.0,509.0,509.0,509.0,509.0,509.0,509.0,509.0,502.0,512.0,509.0,509.0,526.0,512.0
0,7.0,11.0,0.0,509.43333333333334,526.1666666666666,509.0,500,500,500,509.0,509.0,509.0,509.0,509.0,509.0,509.0,509.0,509.0,509.0,509.0,513.0,513.0,513.0,513.0,513.0,513.0,513.0,513.0,513.0,526.0,526.0,526.0,526.0,526.0,526.0,526.0,526.0,526.0,526.0,526.0,531.0,531.0,531.0,531.0,531.0,531.0,531.0,531.0,531.0,509.0,509.0,509.0,509.0,509.0,509.0,509.0,509.0,509.0,509.0,509.0,509.0,509.0,509.0,509.0,509.0,509.0,509.0,509.0,509.0,509.0,526.0,509.0,513.0,531.0,509.0
0,8.0,6.0,14.0,512.0666666666667,529.0333333333333,506.2,500,500,500,509.0,509.0,513.0,513.0,513.0,513.0,513.0,513.0,513.0,513.0,513.0,513.0,513.0,517.0,517.0,517.0,517.0,517.0,518.0,518.0,526.0,526.0,531.0,531.0,531.0,531.0,531.0,531.0,531.0,531.0,531.0,531.0,531.0,532.0,532.0,532.0,532.0,532.0,533.0,533.0,509.0,509.0,509.0,509.0,509.0,509.0,509.0,509.0,509.0,509.0,509.0,509.0,509.0,495.0,495.0,495.0,495.0,495.0,502.0,502.0,509.0,526.0,495.0,517.0,532.0,509.0
0,2.0,7.0,9.0,516.9,529.2333333333333,502.8333333333333,500,500,500,518.0,518.0,518.0,516.0,516.0,516.0,516.0,516.0,516.0,516.0,516.0,516.0,516.0,516.0,516.0,516.0,516.0,516.0,516.0,516.0,533.0,533.0,533.0,526.0,526.0,526.0,526.0,526.0,526.0,526.0,526.0,526.0,526.0,526.0,526.0,526.0,526.0,526.0,526.0,526.0,502.0,502.0,502.0,504.0,504.0,504.0,504.0,504.0,504.0,504.0,504.0,504.0,504.0,504.0,504.0,504.0,504.0,504.0,504.0,504.0,516.0,526.0,502.0,518.0,533.0,504.0
0,2.0,6.0,2.0,515.3333333333334,524.0,504.6666666666667,500,500,500,516.0,516.0,516.0,516.0,516.0,516.0,516.0,516.0,514.0,514.0,514.0,514.0,514.0,514.0,514.0,514.0,514.0,514.0,514.0,514.0,526.0,526.0,526.0,526.0,526.0,526.0,526.0,526.0,520.0,520.0,520.0,520.0,520.0,520.0,520.0,520.0,520.0,520.0,520.0,520.0,504.0,504.0,504.0,504.0,504.0,504.0,504.0,504.0,506.0,506.0,506.0,506.0,506.0,506.0,506.0,506.0,506.0,506.0,506.0,506.0,514.0,520.0,504.0,516.0,526.0,506.0
0,2.0,16.0,6.0,514.3666666666667,515.2,509.3666666666667,500,500,500,515.0,515.0,515.0,515.0,515.0,515.0,515.0,515.0,515.0,515.0,515.0,515.0,515.0,513.0,513.0,513.0,513.0,513.0,513.0,513.0,516.0,516.0,516.0,516.0,516.0,516.0,516.0,516.0,516.0,516.0,516.0,516.0,516.0,504.0,504.0,504.0,504.0,504.0,504.0,504.0,512.0,512.0,512.0,512.0,512.0,512.0,512.0,512.0,512.0,512.0,512.0,512.0,512.0,507.0,507.0,507.0,507.0,507.0,507.0,507.0,513.0,504.0,507.0,515.0,516.0,512.0
0,2.0,8.0,2.0,512.0,500.0,506.0,500,500,500,513.0,513.0,513.0,513.0,511.0,511.0,511.0,511.0,511.0,511.0,511.0,511.0,511.0,511.0,511.0,511.0,511.0,511.0,511.0,508.0,504.0,504.0,504.0,504.0,496.0,496.0,496.0,496.0,496.0,496.0,496.0,496.0,496.0,496.0,496.0,496.0,496.0,496.0,496.0,494.0,507.0,507.0,507.0,507.0,505.0,505.0,505.0,505.0,505.0,505.0,505.0,505.0,505.0,505.0,505.0,505.0,505.0,505.0,505.0,504.0,511.0,496.0,505.0,513.0,504.0,507.0
0,3.0,4.0,2.0,509.9,494.06666666666666,504.03333333333336,500,500,500,508.0,508.0,508.0,508.0,508.0,508.0,508.0,508.0,508.0,508.0,508.0,511.0,511.0,511.0,511.0,511.0,511.0,511.0,511.0,511.0,494.0,494.0,494.0,494.0,494.0,494.0,494.0,494.0,494.0,494.0,494.0,492.0,492.0,492.0,492.0,492.0,492.0,492.0,492.0,492.0,504.0,504.0,504.0,504.0,504.0,504.0,504.0,504.0,504.0,504.0,504.0,503.0,503.0,503.0,503.0,503.0,503.0,503.0,503.0,503.0,508.0,492.0,503.0,511.0,494.0,504.0
0,3.0,4.0,2.0,509.9,493.1333333333333,503.56666666666666,500,500,500,508.0,508.0,508.0,508.0,511.0,511.0,511.0,511.0,511.0,511.0,511.0,511.0,511.0,511.0,511.0,511.0,511.0,511.0,511.0,511.0,494.0,494.0,494.0,494.0,492.0,492.0,492.0,492.0,492.0,492.0,492.0,492.0,492.0,492.0,492.0,492.0,492.0,492.0,492.0,492.0,504.0,504.0,504.0,504.0,503.0,503.0,503.0,503.0,503.0,503.0,503.0,503.0,503.0,503.0,503.0,503.0,503.0,503.0,503.0,503.0,508.0,492.0,503.0,511.0,494.0,504.0
0,2.0,11.0,2.0,511.73333333333335,487.96666666666664,502.26666666666665,500,500,500,511.0,511.0,511.0,511.0,511.0,511.0,511.0,511.0,511.0,513.0,513.0,513.0,513.0,513.0,513.0,513.0,513.0,513.0,513.0,510.0,492.0,492.0,492.0,492.0,492.0,492.0,492.0,492.0,492.0,481.0,481.0,481.0,481.0,481.0,481.0,481.0,481.0,481.0,481.0,470.0,503.0,503.0,503.0,503.0,503.0,503.0,503.0,503.0,503.0,501.0,501.0,501.0,501.0,501.0,501.0,501.0,501.0,501.0,501.0,498.0,511.0,481.0,501.0,513.0,492.0,503.0
0,3.0,22.0,8.0,511.4,480.93333333333334,500.5,500,500,500,513.0,513.0,513.0,513.0,513.0,513.0,513.0,513.0,513.0,510.0,510.0,510.0,510.0,510.0,510.0,510.0,510.0,510.0,510.0,510.0,481.0,481.0,481.0,481.0,481.0,481.0,481.0,481.0,481.0,470.0,470.0,470.0,470.0,470.0,470.0,470.0,470.0,479.0,479.0,479.0,501.0,501.0,501.0,501.0,501.0,501.0,501.0,501.0,501.0,498.0,498.0,498.0,498.0,498.0,498.0,498.0,498.0,495.0,495.0,495.0,510.0,470.0,495.0,513.0,481.0,501.0
0,7.0,29.0,6.0,510.4,478.8333333333333,498.0,500,500,500,510.0,510.0,510.0,510.0,510.0,510.0,510.0,510.0,510.0,510.0,510.0,510.0,510.0,510.0,510.0,510.0,506.0,506.0,506.0,506.0,470.0,470.0,470.0,470.0,470.0,470.0,479.0,479.0,479.0,479.0,479.0,479.0,479.0,479.0,479.0,479.0,499.0,499.0,499.0,499.0,498.0,498.0,498.0,498.0,498.0,498.0,495.0,495.0,495.0,495.0,495.0,495.0,495.0,495.0,495.0,495.0,500.0,500.0,500.0,500.0,506.0,470.0,495.0,510.0,499.0,500.0
0,8.0,39.0,12.0,507.73333333333335,488.1666666666667,498.46666666666664,500,500,500,510.0,510.0,510.0,510.0,510.0,506.0,506.0,506.0,506.0,506.0,506.0,506.0,506.0,506.0,506.0,506.0,506.0,502.0,502.0,502.0,479.0,479.0,479.0,479.0,479.0,499.0,499.0,499.0,499.0,499.0,499.0,499.0,499.0,499.0,499.0,499.0,499.0,509.0,509.0,509.0,495.0,495.0,495.0,495.0,495.0,500.0,500.0,500.0,500.0,500.0,500.0,500.0,500.0,500.0,500.0,500.0,500.0,507.0,507.0,507.0,502.0,479.0,495.0,510.0,509.0,507.0
0,4.0,12.0,7.0,502.73333333333335,509.26666666666665,505.1333333333333,500,500,500,502.0,502.0,502.0,503.0,503.0,503.0,503.0,503.0,503.0,503.0,503.0,503.0,503.0,503.0,503.0,503.0,503.0,503.0,501.0,501.0,509.0,509.0,509.0,511.0,511.0,511.0,511.0,511.0,511.0,511.0,511.0,511.0,511.0,511.0,511.0,511.0,511.0,511.0,515.0,515.0,507.0,507.0,504.0,504.0,504.0,504.0,504.0,504.0,504.0,504.0,504.0,504.0,504.0,504.0,504.0,504.0,504.0,504.0,512.0,512.0,502.0,509.0,504.0,503.0,511.0,507.0
0,2.0,4.0,1.0,502.6666666666667,518.3333333333334,512.8333333333334,500,500,500,503.0,503.0,503.0,503.0,503.0,503.0,503.0,503.0,503.0,503.0,503.0,503.0,503.0,503.0,503.0,503.0,503.0,503.0,503.0,504.0,519.0,519.0,519.0,519.0,519.0,519.0,519.0,519.0,519.0,519.0,519.0,519.0,519.0,519.0,519.0,519.0,519.0,519.0,519.0,514.0,513.0,513.0,513.0,513.0,513.0,513.0,513.0,513.0,513.0,513.0,513.0,513.0,513.0,513.0,513.0,513.0,513.0,513.0,513.0,516.0,503.0,519.0,513.0,503.0,519.0,513.0
0,2.0,6.0,1.0,505.1333333333333,510.6,515.4333333333333,500,500,500,504.0,504.0,504.0,506.0,506.0,506.0,506.0,506.0,506.0,506.0,506.0,506.0,506.0,506.0,506.0,506.0,506.0,506.0,506.0,506.0,514.0,514.0,514.0,508.0,508.0,508.0,508.0,508.0,508.0,508.0,508.0,508.0,508.0,508.0,508.0,508.0,508.0,508.0,508.0,508.0,516.0,516.0,516.0,515.0,515.0,515.0,515.0,515.0,515.0,515.0,515.0,515.0,515.0,515.0,515.0,515.0,515.0,515.0,515.0,515.0,504.0,508.0,515.0,506.0,514.0,516.0
0,7.0,3.0,10.0,509.03333333333336,506.56666666666666,512.8666666666667,500,500,500,506.0,510.0,510.0,510.0,510.0,510.0,510.0,510.0,510.0,510.0,510.0,510.0,510.0,510.0,513.0,513.0,513.0,513.0,513.0,513.0,508.0,506.0,506.0,506.0,506.0,506.0,506.0,506.0,506.0,506.0,506.0,506.0,506.0,506.0,505.0,505.0,505.0,505.0,505.0,505.0,514.0,514.0,514.0,514.0,514.0,514.0,514.0,514.0,514.0,514.0,514.0,514.0,514.0,514.0,505.0,505.0,505.0,505.0,505.0,505.0,506.0,505.0,505.0,513.0,508.0,515.0
0,4.0,8.0,15.0,512.7,506.76666666666665,505.3,500,500,500,513.0,513.0,513.0,513.0,513.0,513.0,513.0,513.0,513.0,513.0,513.0,513.0,513.0,513.0,514.0,514.0,514.0,514.0,514.0,514.0,505.0,505.0,505.0,505.0,505.0,505.0,505.0,505.0,505.0,505.0,505.0,505.0,505.0,505.0,513.0,513.0,513.0,513.0,513.0,513.0,505.0,505.0,505.0,505.0,505.0,505.0,505.0,505.0,505.0,505.0,505.0,505.0,505.0,505.0,499.0,499.0,499.0,499.0,499.0,499.0,513.0,505.0,499.0,514.0,513.0,505.0
0,1.0,8.0,6.0,513.5666666666667,509.53333333333336,501.4,500,500,500,513.0,513.0,514.0,514.0,514.0,514.0,514.0,514.0,514.0,514.0,514.0,514.0,514.0,514.0,514.0,514.0,514.0,513.0,513.0,513.0,505.0,505.0,513.0,513.0,513.0,513.0,513.0,513.0,513.0,513.0,513.0,513.0,513.0,513.0,513.0,513.0,513.0,512.0,512.0,512.0,505.0,505.0,499.0,499.0,499.0,499.0,499.0,499.0,499.0,499.0,499.0,499.0,499.0,499.0,499.0,499.0,499.0,500.0,500.0,500.0,513.0,505.0,499.0,514.0,513.0,505.0
0,5.0,2.0,5.0,512.7333333333333,512.3333333333334,500.26666666666665,500,500,500,513.0,513.0,513.0,513.0,513.0,513.0,513.0,513.0,513.0,513.0,513.0,513.0,513.0,513.0,513.0,513.0,509.0,509.0,509.0,509.0,512.0,512.0,512.0,512.0,512.0,512.0,512.0,512.0,512.0,512.0,512.0,512.0,512.0,512.0,512.0,512.0,514.0,514.0,514.0,514.0,500.0,500.0,500.0,500.0,500.0,500.0,500.0,500.0,500.0,500.0,500.0,500.0,500.0,500.0,500.0,500.0,504.0,504.0,504.0,504.0,509.0,512.0,500.0,513.0,514.0,504.0
0,1.0,1.0,8.0,509.46666666666664,513.5333333333333,507.73333333333335,500,500,500,509.0,509.0,509.0,509.0,509.0,509.0,510.0,510.0,510.0,510.0,510.0,510.0,510.0,510.0,510.0,510.0,510.0,510.0,510.0,510.0,514.0,514.0,514.0,514.0,514.0,514.0,513.0,513.0,513.0,513.0,513.0,513.0,513.0,513.0,513.0,513.0,513.0,513.0,513.0,513.0,504.0,504.0,504.0,504.0,504.0,504.0,512.0,512.0,512.0,512.0,512.0,512.0,512.0,512.0,512.0,512.0,512.0,512.0,512.0,512.0,509.0,513.0,504.0,510.0,514.0,512.0
0,4.0,4.0,3.0,510.1666666666667,513.9333333333333,512.3666666666667,500,500,500,510.0,510.0,510.0,510.0,510.0,510.0,510.0,510.0,510.0,510.0,510.0,511.0,511.0,511.0,511.0,511.0,511.0,511.0,507.0,507.0,513.0,513.0,513.0,513.0,513.0,513.0,513.0,513.0,513.0,513.0,513.0,516.0,516.0,516.0,516.0,516.0,516.0,516.0,517.0,517.0,512.0,512.0,512.0,512.0,512.0,512.0,512.0,512.0,512.0,512.0,512.0,513.0,513.0,513.0,513.0,513.0,513.0,513.0,515.0,515.0,507.0,513.0,512.0,511.0,517.0,515.0
0,5.0,1.0,2.0,507.4,516.5666666666667,514.6666666666666,500,500,500,507.0,507.0,507.0,507.0,507.0,507.0,507.0,507.0,507.0,507.0,507.0,506.0,506.0,506.0,506.0,506.0,506.0,506.0,506.0,506.0,517.0,517.0,517.0,517.0,517.0,517.0,517.0,517.0,517.0,517.0,517.0,516.0,516.0,516.0,516.0,516.0,516.0,516.0,516.0,516.0,515.0,515.0,515.0,515.0,515.0,515.0,515.0,515.0,515.0,515.0,515.0,515.0,515.0,515.0,515.0,515.0,515.0,515.0,515.0,515.0,506.0,516.0,515.0,507.0,517.0,515.0
0,7.0,13.0,6.0,506.8,515.5333333333333,514.6,500,500,500,506.0,506.0,506.0,506.0,506.0,506.0,506.0,506.0,506.0,506.0,506.0,506.0,506.0,506.0,506.0,506.0,506.0,506.0,513.0,513.0,516.0,516.0,516.0,516.0,516.0,516.0,516.0,516.0,516.0,516.0,516.0,516.0,516.0,516.0,516.0,516.0,516.0,516.0,504.0,504.0,515.0,515.0,515.0,515.0,515.0,515.0,515.0,515.0,515.0,515.0,515.0,515.0,515.0,515.0,515.0,515.0,515.0,509.0,509.0,509.0,506.0,504.0,509.0,513.0,516.0,515.0
0,11.0,17.0,12.0,511.9,506.1333333333333,509.6,500,500,500,513.0,513.0,513.0,513.0,513.0,513.0,513.0,513.0,513.0,513.0,513.0,513.0,513.0,517.0,517.0,517.0,517.0,517.0,517.0,517.0,504.0,504.0,504.0,504.0,504.0,504.0,504.0,504.0,504.0,504.0,504.0,504.0,504.0,499.0,499.0,499.0,499.0,499.0,499.0,499.0,509.0,509.0,509.0,509.0,509.0,509.0,509.0,509.0,509.0,509.0,509.0,509.0,509.0,503.0,503.0,503.0,503.0,503.0,503.0,503.0,513.0,499.0,503.0,517.0,504.0,509.0
0,1.0,3.0,3.0,517.4333333333333,497.7,501.7,500,500,500,517.0,517.0,517.0,517.0,517.0,517.0,518.0,518.0,518.0,518.0,518.0,518.0,518.0,518.0,518.0,518.0,518.0,518.0,518.0,518.0,499.0,499.0,499.0,499.0,499.0,499.0,496.0,496.0,496.0,496.0,496.0,496.0,496.0,496.0,496.0,496.0,496.0,496.0,496.0,496.0,503.0,503.0,503.0,503.0,503.0,503.0,500.0,500.0,500.0,500.0,500.0,500.0,500.0,500.0,500.0,500.0,500.0,500.0,500.0,500.0,517.0,496.0,500.0,518.0,499.0,503.0
0,10.0,4.0,10.0,512.0,498.6666666666667,506.0,500,500,500,513.0,513.0,513.0,513.0,513.0,513.0,508.0,508.0,508.0,508.0,508.0,508.0,508.0,508.0,508.0,508.0,508.0,508.0,507.0,507.0,499.0,499.0,499.0,499.0,499.0,499.0,500.0,500.0,500.0,500.0,500.0,500.0,500.0,500.0,500.0,500.0,500.0,500.0,502.0,502.0,505.0,505.0,505.0,505.0,505.0,505.0,510.0,510.0,510.0,510.0,510.0,510.0,510.0,510.0,510.0,510.0,510.0,510.0,514.0,514.0,508.0,499.0,505.0,513.0,500.0,510.0
0,3.0,5.0,4.0,508.43333333333334,499.53333333333336,513.0666666666667,500,500,500,507.0,507.0,507.0,507.0,507.0,507.0,507.0,507.0,510.0,510.0,510.0,510.0,510.0,510.0,510.0,510.0,510.0,510.0,510.0,510.0,502.0,502.0,502.0,502.0,502.0,502.0,502.0,502.0,497.0,497.0,497.0,497.0,497.0,497.0,497.0,497.0,497.0,497.0,497.0,497.0,514.0,514.0,514.0,514.0,514.0,514.0,514.0,514.0,514.0,514.0,514.0,514.0,514.0,514.0,514.0,514.0,514.0,514.0,514.0,514.0,507.0,497.0,514.0,510.0,502.0,514.0
0,4.0,8.0,13.0,508.8333333333333,499.7,507.3666666666667,500,500,500,510.0,510.0,510.0,509.0,509.0,509.0,509.0,509.0,509.0,509.0,509.0,509.0,509.0,506.0,506.0,506.0,506.0,506.0,506.0,506.0,497.0,497.0,497.0,500.0,500.0,500.0,500.0,500.0,500.0,500.0,500.0,500.0,500.0,505.0,505.0,505.0,505.0,505.0,505.0,505.0,514.0,514.0,514.0,503.0,503.0,503.0,503.0,503.0,503.0,503.0,503.0,503.0,503.0,501.0,501.0,501.0,501.0,501.0,501.0,501.0,506.0,497.0,501.0,510.0,505.0,514.0
0,4.0,10.0,6.0,503.73333333333335,510.6666666666667,504.4,500,500,500,506.0,506.0,502.0,502.0,502.0,502.0,502.0,502.0,502.0,502.0,502.0,502.0,502.0,502.0,502.0,502.0,502.0,502.0,502.0,502.0,505.0,505.0,515.0,515.0,515.0,515.0,515.0,515.0,515.0,515.0,515.0,515.0,515.0,515.0,515.0,515.0,515.0,515.0,515.0,515.0,501.0,501.0,507.0,507.0,507.0,507.0,507.0,507.0,507.0,507.0,507.0,507.0,507.0,507.0,507.0,507.0,507.0,507.0,507.0,507.0,502.0,505.0,501.0,506.0,515.0,507.0
0,3.0,3.0,5.0,500.3666666666667,516.2,508.8333333333333,500,500,500,502.0,502.0,502.0,499.0,499.0,499.0,499.0,499.0,499.0,499.0,499.0,499.0,499.0,499.0,499.0,499.0,499.0,499.0,500.0,500.0,515.0,515.0,515.0,517.0,517.0,517.0,517.0,517.0,517.0,517.0,517.0,517.0,517.0,517.0,517.0,517.0,517.0,517.0,518.0,518.0,507.0,507.0,507.0,510.0,510.0,510.0,510.0,510.0,510.0,510.0,510.0,510.0,510.0,510.0,510.0,510.0,510.0,512.0,512.0,512.0,499.0,515.0,507.0,502.0,518.0,512.0
0,6.0,3.0,7.0,503.9,517.2333333333333,508.3666666666667,500,500,500,505.0,505.0,505.0,505.0,505.0,505.0,505.0,505.0,505.0,505.0,505.0,505.0,505.0,506.0,506.0,506.0,506.0,506.0,506.0,506.0,516.0,516.0,516.0,516.0,516.0,516.0,516.0,516.0,516.0,516.0,516.0,516.0,516.0,519.0,519.0,519.0,519.0,519.0,519.0,519.0,508.0,508.0,508.0,508.0,508.0,508.0,508.0,508.0,508.0,508.0,508.0,508.0,508.0,505.0,505.0,505.0,505.0,505.0,505.0,505.0,505.0,516.0,505.0,506.0,519.0,508.0
0,5.0,3.0,4.0,505.53333333333336,518.1,506.03333333333336,500,500,500,506.0,506.0,506.0,506.0,506.0,506.0,506.0,506.0,506.0,506.0,506.0,506.0,506.0,506.0,506.0,506.0,506.0,506.0,506.0,501.0,519.0,519.0,519.0,519.0,519.0,519.0,519.0,519.0,519.0,519.0,519.0,519.0,519.0,519.0,519.0,519.0,519.0,519.0,519.0,519.0,505.0,505.0,505.0,505.0,505.0,505.0,505.0,505.0,505.0,505.0,505.0,505.0,505.0,505.0,505.0,505.0,505.0,505.0,505.0,509.0,501.0,519.0,505.0,506.0,519.0,509.0
0,5.0,0.0,4.0,504.0,519.0,506.6,500,500,500,506.0,506.0,506.0,506.0,506.0,506.0,506.0,506.0,501.0,501.0,501.0,501.0,501.0,501.0,501.0,501.0,501.0,501.0,501.0,508.0,519.0,519.0,519.0,519.0,519.0,519.0,519.0,519.0,519.0,519.0,519.0,519.0,519.0,519.0,519.0,519.0,519.0,519.0,519.0,512.0,505.0,505.0,505.0,505.0,505.0,505.0,505.0,505.0,509.0,509.0,509.0,509.0,509.0,509.0,509.0,509.0,509.0,509.0,509.0,509.0,501.0,519.0,505.0,506.0,519.0,509.0
0,12.0,14.0,4.0,505.1333333333333,515.7333333333333,508.03333333333336,500,500,500,501.0,501.0,501.0,501.0,501.0,501.0,501.0,508.0,508.0,508.0,508.0,508.0,508.0,508.0,508.0,508.0,513.0,513.0,513.0,513.0,519.0,519.0,519.0,519.0,519.0,519.0,519.0,512.0,512.0,512.0,512.0,512.0,512.0,512.0,512.0,512.0,505.0,505.0,505.0,505.0,509.0,509.0,509.0,509.0,509.0,509.0,509.0,509.0,509.0,509.0,509.0,509.0,509.0,509.0,509.0,509.0,506.0,506.0,506.0,506.0,501.0,505.0,506.0,513.0,519.0,509.0
0,8.0,8.0,11.0,511.93333333333334,506.6,506.43333333333334,500,500,500,513.0,513.0,513.0,513.0,513.0,513.0,513.0,513.0,513.0,513.0,513.0,513.0,513.0,513.0,513.0,513.0,513.0,513.0,516.0,516.0,505.0,505.0,505.0,505.0,505.0,505.0,505.0,505.0,505.0,505.0,505.0,505.0,505.0,505.0,505.0,505.0,505.0,505.0,504.0,504.0,506.0,506.0,506.0,506.0,506.0,506.0,506.0,506.0,506.0,506.0,506.0,506.0,506.0,506.0,506.0,506.0,506.0,506.0,498.0,498.0,513.0,504.0,498.0,516.0,505.0,506.0
0,1.0,5.0,2.0,516.5333333333333,506.6666666666667,496.93333333333334,500,500,500,516.0,516.0,516.0,517.0,517.0,517.0,517.0,517.0,517.0,517.0,517.0,517.0,517.0,517.0,517.0,517.0,517.0,517.0,517.0,517.0,504.0,504.0,504.0,509.0,509.0,509.0,509.0,509.0,509.0,509.0,509.0,509.0,509.0,509.0,509.0,509.0,509.0,509.0,509.0,509.0,498.0,498.0,498.0,496.0,496.0,496.0,496.0,496.0,496.0,496.0,496.0,496.0,496.0,496.0,496.0,496.0,496.0,496.0,496.0,496.0,516.0,504.0,496.0,517.0,509.0,498.0
0,4.0,8.0,9.0,515.4,512.2,498.76666666666665,500,500,500,517.0,517.0,517.0,517.0,517.0,517.0,517.0,513.0,513.0,513.0,513.0,513.0,513.0,513.0,513.0,513.0,513.0,513.0,513.0,513.0,509.0,509.0,509.0,509.0,509.0,509.0,509.0,517.0,517.0,517.0,517.0,517.0,517.0,517.0,517.0,517.0,517.0,517.0,517.0,517.0,496.0,496.0,496.0,496.0,496.0,496.0,496.0,500.0,500.0,500.0,500.0,500.0,505.0,505.0,505.0,505.0,505.0,505.0,505.0,505.0,513.0,509.0,496.0,517.0,517.0,505.0
0,3.0,13.0,12.0,511.6333333333333,511.7,510.03333333333336,500,500,500,513.0,510.0,510.0,510.0,510.0,510.0,510.0,510.0,510.0,510.0,510.0,510.0,512.0,512.0,512.0,512.0,512.0,512.0,512.0,512.0,517.0,512.0,512.0,512.0,512.0,512.0,512.0,512.0,512.0,512.0,512.0,512.0,504.0,504.0,504.0,504.0,504.0,504.0,504.0,504.0,505.0,510.0,510.0,510.0,510.0,510.0,510.0,510.0,510.0,510.0,510.0,510.0,517.0,517.0,517.0,517.0,517.0,517.0,517.0,517.0,510.0,504.0,505.0,513.0,517.0,517.0
0,2.0,11.0,7.0,511.53333333333336,504.93333333333334,515.5666666666667,500,500,500,512.0,512.0,512.0,512.0,512.0,512.0,512.0,512.0,512.0,512.0,512.0,512.0,512.0,512.0,511.0,511.0,511.0,511.0,511.0,511.0,504.0,504.0,504.0,504.0,504.0,504.0,504.0,504.0,504.0,504.0,504.0,504.0,504.0,504.0,501.0,501.0,501.0,501.0,501.0,501.0,517.0,517.0,517.0,517.0,517.0,517.0,517.0,517.0,517.0,517.0,517.0,517.0,517.0,517.0,515.0,515.0,515.0,515.0,515.0,515.0,511.0,501.0,515.0,512.0,504.0,517.0
0,2.0,6.0,3.0,511.9,501.0,515.3,500,500,500,511.0,511.0,511.0,511.0,511.0,511.0,511.0,511.0,511.0,511.0,511.0,513.0,513.0,513.0,513.0,513.0,513.0,513.0,513.0,513.0,501.0,501.0,501.0,501.0,501.0,501.0,501.0,501.0,501.0,501.0,501.0,498.0,498.0,498.0,498.0,498.0,498.0,498.0,498.0,498.0,515.0,515.0,515.0,515.0,515.0,515.0,515.0,515.0,515.0,515.0,515.0,514.0,514.0,514.0,514.0,514.0,514.0,514.0,514.0,514.0,511.0,498.0,514.0,513.0,501.0,515.0
0,6.0,5.0,5.0,514.4,499.1666666666667,512.8333333333334,500,500,500,513.0,513.0,513.0,513.0,513.0,513.0,513.0,513.0,513.0,513.0,513.0,513.0,513.0,519.0,519.0,519.0,519.0,519.0,519.0,519.0,498.0,498.0,498.0,498.0,498.0,498.0,498.0,498.0,498.0,498.0,498.0,498.0,498.0,503.0,503.0,503.0,503.0,503.0,503.0,503.0,514.0,514.0,514.0,514.0,514.0,514.0,514.0,514.0,514.0,514.0,514.0,514.0,514.0,509.0,509.0,509.0,509.0,509.0,509.0,509.0,513.0,498.0,509.0,519.0,503.0,514.0
0,6.0,5.0,9.0,517.4666666666667,501.76666666666665,509.3,500,500,500,519.0,519.0,519.0,519.0,519.0,519.0,519.0,519.0,519.0,519.0,519.0,519.0,519.0,519.0,519.0,515.0,515.0,515.0,515.0,515.0,503.0,503.0,503.0,503.0,503.0,503.0,503.0,503.0,503.0,503.0,503.0,503.0,503.0,503.0,503.0,500.0,500.0,500.0,500.0,500.0,509.0,509.0,509.0,509.0,509.0,509.0,509.0,509.0,509.0,509.0,509.0,509.0,509.0,509.0,509.0,505.0,505.0,505.0,505.0,505.0,515.0,500.0,505.0,519.0,503.0,509.0
0,2.0,5.0,6.0,514.0,502.5,502.0,500,500,500,515.0,515.0,515.0,515.0,515.0,513.0,513.0,513.0,513.0,513.0,513.0,513.0,513.0,513.0,513.0,513.0,513.0,513.0,513.0,513.0,500.0,500.0,500.0,500.0,500.0,505.0,505.0,505.0,505.0,505.0,505.0,505.0,505.0,505.0,505.0,505.0,505.0,505.0,505.0,505.0,505.0,505.0,505.0,505.0,505.0,499.0,499.0,499.0,499.0,499.0,499.0,499.0,499.0,499.0,499.0,499.0,499.0,499.0,499.0,499.0,513.0,500.0,499.0,515.0,505.0,505.0
0,0.0,3.0,5.0,513.0,505.5,501.56666666666666,500,500,500,513.0,513.0,513.0,513.0,513.0,513.0,513.0,513.0,513.0,513.0,513.0,513.0,513.0,513.0,513.0,513.0,513.0,513.0,513.0,513.0,505.0,505.0,505.0,505.0,505.0,505.0,505.0,505.0,505.0,505.0,505.0,505.0,505.0,505.0,508.0,508.0,508.0,508.0,508.0,508.0,499.0,499.0,503.0,503.0,503.0,503.0,503.0,503.0,503.0,503.0,503.0,503.0,503.0,503.0,504.0,504.0,504.0,504.0,504.0,504.0,513.0,505.0,499.0,513.0,508.0,504.0
0,0.0,3.0,5.0,513.0,506.5,503.23333333333335,500,500,500,513.0,513.0,513.0,513.0,513.0,513.0,513.0,513.0,513.0,513.0,513.0,513.0,513.0,513.0,513.0,513.0,513.0,513.0,513.0,513.0,505.0,505.0,505.0,505.0,505.0,508.0,508.0,508.0,508.0,508.0,508.0,508.0,508.0,508.0,508.0,508.0,508.0,508.0,508.0,508.0,503.0,503.0,503.0,503.0,503.0,504.0,504.0,504.0,504.0,504.0,504.0,504.0,504.0,504.0,504.0,504.0,504.0,504.0,504.0,504.0,513.0,505.0,503.0,513.0,508.0,504.0
0,7.0,12.0,10.0,507.03333333333336,515.1333333333333,512.6666666666666,500,500,500,507.0,507.0,507.0,506.0,506.0,506.0,506.0,506.0,506.0,506.0,506.0,506.0,506.0,506.0,506.0,506.0,506.0,506.0,506.0,506.0,509.0,509.0,509.0,520.0,520.0,520.0,520.0,520.0,520.0,520.0,520.0,520.0,520.0,520.0,520.0,520.0,520.0,520.0,520.0,520.0,513.0,513.0,513.0,514.0,514.0,514.0,514.0,514.0,514.0,514.0,514.0,514.0,514.0,514.0,514.0,514.0,514.0,514.0,514.0,514.0,506.0,509.0,513.0,507.0,520.0,514.0
0,2.0,16.0,2.0,505.7,521.3,513.3,500,500,500,506.0,506.0,506.0,506.0,506.0,506.0,506.0,506.0,506.0,505.0,505.0,505.0,505.0,505.0,505.0,505.0,505.0,505.0,505.0,505.0,520.0,520.0,520.0,520.0,520.0,520.0,520.0,520.0,520.0,525.0,525.0,525.0,525.0,525.0,525.0,525.0,525.0,525.0,525.0,525.0,514.0,514.0,514.0,514.0,514.0,514.0,514.0,514.0,514.0,512.0,512.0,512.0,512.0,512.0,512.0,512.0,512.0,512.0,512.0,512.0,505.0,520.0,512.0,506.0,525.0,514.0
0,2.0,6.0,7.0,504.6,524.6333333333333,512.5666666666667,500,500,500,505.0,505.0,504.0,504.0,504.0,504.0,504.0,504.0,504.0,504.0,504.0,504.0,505.0,505.0,505.0,505.0,505.0,505.0,505.0,505.0,525.0,525.0,526.0,526.0,526.0,526.0,526.0,526.0,526.0,526.0,526.0,526.0,520.0,520.0,520.0,520.0,520.0,520.0,520.0,520.0,512.0,512.0,514.0,514.0,514.0,514.0,514.0,514.0,514.0,514.0,514.0,514.0,507.0,507.0,507.0,507.0,507.0,507.0,507.0,507.0,504.0,520.0,507.0,505.0,526.0,514.0
0,12.0,19.0,13.0,507.8666666666667,516.9333333333333,505.8666666666667,500,500,500,505.0,505.0,505.0,505.0,505.0,505.0,505.0,505.0,505.0,505.0,516.0,516.0,516.0,516.0,516.0,516.0,516.0,516.0,516.0,516.0,520.0,520.0,520.0,520.0,520.0,520.0,520.0,520.0,520.0,520.0,507.0,507.0,507.0,507.0,507.0,507.0,507.0,507.0,507.0,507.0,507.0,507.0,507.0,507.0,507.0,507.0,507.0,507.0,507.0,507.0,501.0,501.0,501.0,501.0,501.0,501.0,501.0,501.0,501.0,501.0,505.0,507.0,501.0,516.0,520.0,507.0
0,2.0,3.0,4.0,514.9333333333333,505.4,498.8666666666667,500,500,500,516.0,516.0,516.0,516.0,514.0,514.0,514.0,514.0,514.0,514.0,514.0,514.0,514.0,514.0,514.0,514.0,514.0,514.0,514.0,514.0,507.0,507.0,507.0,507.0,504.0,504.0,504.0,504.0,504.0,504.0,504.0,504.0,504.0,504.0,504.0,504.0,504.0,504.0,504.0,504.0,501.0,501.0,501.0,501.0,497.0,497.0,497.0,497.0,497.0,497.0,497.0,497.0,497.0,497.0,497.0,497.0,497.0,497.0,497.0,497.0,514.0,504.0,497.0,516.0,507.0,501.0
0,1.0,10.0,9.0,513.8333333333334,508.26666666666665,497.9,500,500,500,514.0,514.0,514.0,514.0,514.0,514.0,514.0,514.0,514.0,514.0,514.0,514.0,514.0,513.0,513.0,513.0,513.0,513.0,513.0,513.0,504.0,504.0,510.0,510.0,510.0,510.0,510.0,510.0,510.0,510.0,510.0,510.0,510.0,514.0,514.0,514.0,514.0,514.0,514.0,514.0,497.0,497.0,496.0,496.0,496.0,496.0,496.0,496.0,496.0,496.0,496.0,496.0,496.0,505.0,505.0,505.0,505.0,505.0,505.0,505.0,513.0,504.0,496.0,514.0,514.0,505.0
0,2.0,4.0,9.0,513.0333333333333,513.2,503.3666666666667,500,500,500,513.0,513.0,513.0,513.0,513.0,513.0,513.0,513.0,513.0,513.0,513.0,513.0,512.0,512.0,512.0,512.0,512.0,512.0,512.0,512.0,514.0,514.0,514.0,514.0,514.0,514.0,514.0,514.0,514.0,514.0,514.0,514.0,513.0,513.0,513.0,513.0,513.0,513.0,513.0,513.0,505.0,505.0,505.0,505.0,505.0,505.0,505.0,505.0,505.0,505.0,505.0,505.0,504.0,504.0,504.0,504.0,504.0,504.0,504.0,504.0,512.0,513.0,504.0,513.0,514.0,505.0
0,1.0,5.0,6.0,512.3333333333334,512.1666666666666,505.5,500,500,500,512.0,512.0,512.0,512.0,512.0,512.0,512.0,512.0,512.0,512.0,512.0,512.0,513.0,513.0,513.0,513.0,513.0,513.0,513.0,513.0,513.0,513.0,513.0,513.0,513.0,513.0,513.0,513.0,513.0,513.0,513.0,513.0,509.0,509.0,509.0,509.0,509.0,509.0,509.0,509.0,504.0,504.0,504.0,504.0,504.0,504.0,504.0,504.0,504.0,504.0,504.0,504.0,510.0,510.0,510.0,510.0,510.0,510.0,510.0,510.0,512.0,509.0,504.0,513.0,513.0,510.0
0,4.0,8.0,14.0,510.43333333333334,509.53333333333336,511.93333333333334,500,500,500,511.0,511.0,509.0,509.0,509.0,509.0,509.0,509.0,509.0,509.0,509.0,509.0,509.0,509.0,509.0,509.0,509.0,509.0,509.0,510.0,503.0,503.0,511.0,511.0,511.0,511.0,511.0,511.0,511.0,511.0,511.0,511.0,511.0,511.0,511.0,511.0,511.0,511.0,511.0,509.0,504.0,504.0,514.0,514.0,514.0,514.0,514.0,514.0,514.0,514.0,514.0,514.0,514.0,514.0,514.0,514.0,514.0,514.0,514.0,518.0,509.0,503.0,504.0,511.0,511.0,518.0
0,4.0,5.0,6.0,510.0,509.5,515.0,500,500,500,509.0,509.0,509.0,509.0,510.0,510.0,510.0,510.0,510.0,510.0,510.0,513.0,513.0,513.0,513.0,513.0,513.0,513.0,513.0,513.0,511.0,511.0,511.0,511.0,509.0,509.0,509.0,509.0,509.0,509.0,509.0,506.0,506.0,506.0,506.0,506.0,506.0,506.0,506.0,506.0,514.0,514.0,514.0,514.0,518.0,518.0,518.0,518.0,518.0,518.0,518.0,512.0,512.0,512.0,512.0,512.0,512.0,512.0,512.0,512.0,509.0,506.0,512.0,513.0,511.0,518.0
0,2.0,2.0,6.0,513.6,506.0,509.6,500,500,500,513.0,513.0,513.0,513.0,513.0,513.0,513.0,513.0,515.0,515.0,515.0,515.0,515.0,514.0,514.0,514.0,514.0,514.0,514.0,514.0,506.0,506.0,506.0,506.0,506.0,506.0,506.0,506.0,507.0,507.0,507.0,507.0,507.0,505.0,505.0,505.0,505.0,505.0,505.0,505.0,512.0,512.0,512.0,512.0,512.0,512.0,512.0,512.0,506.0,506.0,506.0,506.0,506.0,506.0,506.0,506.0,506.0,506.0,506.0,506.0,513.0,505.0,506.0,515.0,507.0,512.0
0,3.0,4.0,10.0,514.2333333333333,505.23333333333335,505.93333333333334,500,500,500,514.0,514.0,514.0,514.0,514.0,514.0,514.0,514.0,514.0,514.0,514.0,514.0,514.0,514.0,514.0,514.0,514.0,514.0,514.0,516.0,505.0,505.0,505.0,505.0,505.0,505.0,505.0,505.0,505.0,505.0,505.0,505.0,505.0,505.0,505.0,505.0,505.0,503.0,503.0,503.0,506.0,506.0,506.0,506.0,506.0,506.0,506.0,506.0,506.0,506.0,506.0,506.0,506.0,506.0,506.0,506.0,506.0,502.0,502.0,506.0,514.0,503.0,502.0,516.0,505.0,506.0
0,2.0,2.0,4.0,514.8666666666667,504.0,505.73333333333335,500,500,500,514.0,514.0,514.0,516.0,516.0,516.0,516.0,516.0,516.0,516.0,516.0,516.0,516.0,516.0,516.0,516.0,516.0,516.0,512.0,512.0,505.0,505.0,503.0,503.0,503.0,503.0,503.0,503.0,503.0,503.0,503.0,503.0,503.0,503.0,503.0,503.0,503.0,503.0,504.0,504.0,506.0,506.0,502.0,506.0,506.0,506.0,506.0,506.0,506.0,506.0,506.0,506.0,506.0,506.0,506.0,506.0,506.0,506.0,509.0,509.0,514.0,503.0,502.0,516.0,505.0,506.0
0,6.0,1.0,10.0,511.8666666666667,503.8666666666667,510.93333333333334,500,500,500,512.0,512.0,512.0,512.0,512.0,512.0,512.0,512.0,512.0,512.0,510.0,510.0,510.0,510.0,510.0,510.0,510.0,510.0,510.0,510.0,504.0,504.0,504.0,504.0,504.0,504.0,504.0,504.0,504.0,504.0,504.0,504.0,504.0,504.0,504.0,504.0,504.0,504.0,504.0,504.0,509.0,509.0,509.0,509.0,509.0,509.0,509.0,509.0,509.0,509.0,516.0,516.0,516.0,516.0,516.0,516.0,516.0,516.0,516.0,516.0,510.0,504.0,509.0,512.0,504.0,516.0
0,2.0,11.0,3.0,510.73333333333335,498.96666666666664,514.9,500,500,500,510.0,510.0,510.0,510.0,510.0,510.0,510.0,510.0,512.0,512.0,512.0,512.0,512.0,512.0,512.0,512.0,512.0,512.0,512.0,512.0,504.0,504.0,504.0,499.0,499.0,499.0,499.0,499.0,493.0,493.0,493.0,493.0,493.0,493.0,493.0,493.0,493.0,493.0,493.0,493.0,516.0,516.0,516.0,516.0,516.0,516.0,516.0,516.0,513.0,513.0,513.0,513.0,513.0,513.0,513.0,513.0,513.0,513.0,513.0,513.0,510.0,493.0,513.0,512.0,504.0,516.0
0,5.0,18.0,14.0,512.0666666666667,496.6666666666667,511.5,500,500,500,512.0,512.0,512.0,512.0,512.0,512.0,512.0,513.0,513.0,513.0,513.0,513.0,513.0,513.0,513.0,513.0,508.0,508.0,508.0,508.0,493.0,493.0,493.0,493.0,493.0,493.0,493.0,501.0,501.0,501.0,501.0,501.0,501.0,501.0,501.0,501.0,511.0,511.0,511.0,511.0,513.0,513.0,513.0,513.0,513.0,513.0,513.0,509.0,509.0,509.0,509.0,509.0,509.0,509.0,509.0,509.0,502.0,502.0,502.0,502.0,508.0,493.0,502.0,513.0,511.0,513.0
0,4.0,6.0,10.0,505.6,514.6,508.0,500,500,500,508.0,508.0,504.0,504.0,504.0,504.0,504.0,504.0,504.0,504.0,504.0,504.0,504.0,504.0,504.0,504.0,504.0,504.0,504.0,504.0,511.0,511.0,517.0,517.0,517.0,517.0,517.0,517.0,517.0,517.0,517.0,517.0,517.0,517.0,517.0,517.0,517.0,517.0,517.0,517.0,502.0,502.0,512.0,512.0,512.0,512.0,512.0,512.0,512.0,512.0,512.0,512.0,512.0,512.0,512.0,512.0,512.0,512.0,512.0,512.0,504.0,511.0,502.0,508.0,517.0,512.0
0,2.0,6.0,4.0,503.53333333333336,511.26666666666665,512.7333333333333,500,500,500,503.0,503.0,503.0,503.0,503.0,503.0,503.0,503.0,503.0,503.0,503.0,503.0,503.0,503.0,503.0,503.0,505.0,505.0,505.0,505.0,510.0,510.0,510.0,510.0,510.0,510.0,510.0,510.0,510.0,510.0,510.0,510.0,510.0,510.0,510.0,510.0,511.0,511.0,511.0,511.0,513.0,513.0,513.0,513.0,513.0,513.0,513.0,513.0,513.0,513.0,513.0,513.0,513.0,513.0,513.0,513.0,515.0,515.0,515.0,515.0,503.0,510.0,513.0,505.0,511.0,515.0
0,2.0,1.0,2.0,504.0,510.5,514.0,500,500,500,503.0,503.0,503.0,503.0,505.0,505.0,505.0,505.0,505.0,505.0,505.0,505.0,505.0,505.0,505.0,505.0,505.0,505.0,505.0,505.0,510.0,510.0,510.0,510.0,511.0,511.0,511.0,511.0,511.0,511.0,511.0,511.0,511.0,511.0,511.0,511.0,511.0,511.0,511.0,511.0,513.0,513.0,513.0,513.0,515.0,515.0,515.0,515.0,515.0,515.0,515.0,515.0,515.0,515.0,515.0,515.0,515.0,515.0,515.0,515.0,503.0,510.0,513.0,505.0,511.0,515.0
0,2.0,7.0,6.0,509.26666666666665,512.4333333333333,510.2,500,500,500,508.0,510.0,510.0,510.0,510.0,510.0,510.0,510.0,510.0,510.0,510.0,510.0,510.0,510.0,510.0,510.0,510.0,510.0,510.0,510.0,508.0,515.0,515.0,515.0,515.0,515.0,515.0,515.0,515.0,515.0,515.0,515.0,515.0,515.0,515.0,515.0,515.0,515.0,515.0,515.0,514.0,508.0,508.0,508.0,508.0,508.0,508.0,508.0,508.0,508.0,508.0,508.0,508.0,508.0,508.0,508.0,508.0,508.0,508.0,508.0,508.0,508.0,508.0,510.0,515.0,514.0
0,0.0,4.0,3.0,510.0,512.7333333333333,506.53333333333336,500,500,500,510.0,510.0,510.0,510.0,510.0,510.0,510.0,510.0,510.0,510.0,510.0,510.0,510.0,510.0,510.0,510.0,510.0,510.0,510.0,510.0,513.0,513.0,513.0,513.0,513.0,513.0,513.0,513.0,513.0,513.0,511.0,511.0,511.0,511.0,511.0,511.0,511.0,511.0,511.0,511.0,507.0,507.0,507.0,507.0,507.0,507.0,507.0,507.0,507.0,507.0,505.0,505.0,505.0,505.0,505.0,505.0,505.0,505.0,505.0,505.0,510.0,511.0,505.0,510.0,513.0,507.0
0,3.0,2.0,8.0,511.93333333333334,511.06666666666666,509.7,500,500,500,513.0,513.0,513.0,513.0,513.0,513.0,513.0,513.0,513.0,513.0,513.0,513.0,513.0,513.0,513.0,513.0,513.0,513.0,511.0,511.0,511.0,511.0,511.0,511.0,511.0,511.0,511.0,511.0,511.0,511.0,511.0,511.0,511.0,511.0,511.0,511.0,511.0,511.0,513.0,513.0,512.0,512.0,512.0,512.0,512.0,512.0,512.0,512.0,512.0,512.0,512.0,512.0,512.0,512.0,512.0,512.0,512.0,512.0,513.0,513.0,511.0,511.0,512.0,513.0,513.0,513.0
0,4.0,7.0,1.0,512.1333333333333,513.3666666666667,512.6,500,500,500,511.0,511.0,511.0,511.0,511.0,511.0,511.0,511.0,511.0,511.0,511.0,511.0,511.0,511.0,511.0,515.0,515.0,515.0,515.0,515.0,513.0,513.0,513.0,513.0,513.0,513.0,513.0,513.0,513.0,513.0,513.0,513.0,513.0,513.0,513.0,518.0,518.0,518.0,518.0,518.0,513.0,513.0,513.0,513.0,513.0,513.0,513.0,513.0,513.0,513.0,513.0,513.0,513.0,513.0,513.0,512.0,512.0,512.0,512.0,512.0,511.0,513.0,512.0,515.0,518.0,513.0
0,4.0,9.0,6.0,514.3,516.9,511.26666666666665,500,500,500,515.0,515.0,515.0,515.0,515.0,515.0,515.0,515.0,515.0,515.0,515.0,514.0,514.0,514.0,514.0,514.0,514.0,514.0,514.0,514.0,518.0,518.0,518.0,518.0,518.0,518.0,518.0,518.0,518.0,518.0,518.0,520.0,520.0,520.0,520.0,520.0,511.0,511.0,511.0,511.0,512.0,512.0,512.0,512.0,512.0,512.0,512.0,512.0,512.0,512.0,512.0,511.0,511.0,511.0,511.0,511.0,507.0,507.0,507.0,507.0,514.0,511.0,507.0,515.0,520.0,512.0
0,2.0,20.0,5.0,513.8,510.1666666666667,508.3,500,500,500,514.0,514.0,514.0,514.0,514.0,514.0,514.0,514.0,514.0,514.0,514.0,514.0,513.0,513.0,513.0,513.0,513.0,513.0,513.0,513.0,511.0,511.0,511.0,511.0,511.0,511.0,511.0,511.0,511.0,511.0,511.0,511.0,500.0,500.0,500.0,500.0,500.0,500.0,500.0,500.0,507.0,507.0,507.0,507.0,507.0,507.0,507.0,507.0,507.0,507.0,507.0,507.0,509.0,509.0,509.0,509.0,509.0,509.0,509.0,509.0,513.0,500.0,507.0,514.0,511.0,509.0
0,0.0,3.0,4.0,513.0,500.56666666666666,509.46666666666664,500,500,500,513.0,513.0,513.0,513.0,513.0,513.0,513.0,513.0,513.0,513.0,513.0,513.0,513.0,513.0,513.0,513.0,513.0,513.0,513.0,513.0,502.0,502.0,502.0,502.0,502.0,502.0,502.0,502.0,502.0,502.0,502.0,499.0,499.0,499.0,499.0,499.0,499.0,499.0,499.0,499.0,508.0,508.0,508.0,508.0,508.0,508.0,508.0,508.0,508.0,508.0,508.0,512.0,512.0,512.0,512.0,512.0,512.0,512.0,512.0,512.0,513.0,499.0,508.0,513.0,502.0,512.0
0,2.0,8.0,4.0,512.7333333333333,500.76666666666665,511.06666666666666,500,500,500,513.0,513.0,513.0,513.0,513.0,513.0,513.0,513.0,513.0,513.0,513.0,513.0,513.0,513.0,511.0,511.0,511.0,511.0,511.0,511.0,499.0,499.0,499.0,499.0,499.0,499.0,499.0,499.0,499.0,499.0,499.0,499.0,499.0,507.0,507.0,507.0,507.0,507.0,507.0,507.0,512.0,512.0,512.0,512.0,512.0,512.0,512.0,512.0,512.0,512.0,512.0,512.0,512.0,512.0,512.0,512.0,512.0,512.0,512.0,512.0,511.0,499.0,512.0,513.0,507.0,512.0
0,4.0,10.0,4.0,510.8666666666667,506.53333333333336,512.6666666666666,500,500,500,511.0,511.0,511.0,511.0,511.0,511.0,511.0,511.0,511.0,511.0,511.0,511.0,511.0,511.0,509.0,509.0,509.0,509.0,509.0,509.0,507.0,507.0,507.0,507.0,507.0,507.0,507.0,507.0,507.0,507.0,507.0,507.0,507.0,507.0,509.0,509.0,509.0,509.0,509.0,509.0,512.0,512.0,512.0,512.0,512.0,512.0,512.0,512.0,512.0,512.0,512.0,512.0,512.0,512.0,516.0,516.0,516.0,516.0,516.0,516.0,509.0,507.0,512.0,511.0,509.0,516.0
0,2.0,2.0,4.0,509.6,508.4,514.9666666666667,500,500,500,509.0,509.0,509.0,509.0,509.0,509.0,509.0,509.0,509.0,509.0,509.0,509.0,509.0,509.0,509.0,510.0,510.0,510.0,510.0,510.0,509.0,509.0,509.0,509.0,509.0,509.0,509.0,509.0,509.0,509.0,509.0,509.0,509.0,509.0,509.0,511.0,511.0,511.0,511.0,511.0,516.0,516.0,516.0,516.0,516.0,516.0,516.0,516.0,516.0,516.0,516.0,516.0,516.0,516.0,516.0,517.0,517.0,517.0,517.0,517.0,509.0,509.0,516.0,510.0,511.0,517.0
0,3.0,4.0,3.0,508.8,512.6,515.8,500,500,500,510.0,510.0,510.0,510.0,510.0,510.0,510.0,507.0,507.0,507.0,507.0,507.0,507.0,507.0,507.0,507.0,507.0,507.0,507.0,507.0,511.0,511.0,511.0,511.0,511.0,511.0,511.0,515.0,515.0,515.0,515.0,515.0,515.0,515.0,515.0,515.0,515.0,515.0,515.0,515.0,517.0,517.0,517.0,517.0,517.0,517.0,517.0,514.0,514.0,514.0,514.0,514.0,514.0,514.0,514.0,514.0,514.0,514.0,514.0,514.0,507.0,511.0,514.0,510.0,515.0,517.0
0,5.0,6.0,10.0,503.6333333333333,517.4333333333333,508.6666666666667,500,500,500,504.0,504.0,504.0,504.0,502.0,502.0,502.0,502.0,502.0,502.0,502.0,502.0,502.0,502.0,502.0,502.0,500.0,500.0,500.0,500.0,514.0,514.0,514.0,520.0,520.0,520.0,520.0,520.0,520.0,520.0,520.0,520.0,520.0,520.0,520.0,520.0,533.0,533.0,533.0,533.0,514.0,514.0,514.0,504.0,504.0,504.0,504.0,504.0,504.0,504.0,504.0,504.0,504.0,504.0,504.0,504.0,505.0,505.0,505.0,505.0,502.0,514.0,504.0,504.0,520.0,514.0
0,3.0,13.0,7.0,500.23333333333335,525.9333333333333,506.53333333333336,500,500,500,500.0,500.0,500.0,500.0,500.0,500.0,500.0,500.0,500.0,499.0,499.0,499.0,499.0,499.0,499.0,499.0,499.0,499.0,499.0,499.0,533.0,533.0,533.0,533.0,533.0,533.0,533.0,533.0,533.0,521.0,521.0,521.0,521.0,521.0,521.0,521.0,521.0,521.0,521.0,521.0,505.0,505.0,505.0,505.0,505.0,505.0,505.0,505.0,505.0,511.0,511.0,511.0,511.0,511.0,511.0,511.0,511.0,511.0,511.0,511.0,499.0,521.0,505.0,500.0,533.0,511.0
0,1.0,8.0,5.0,501.73333333333335,510.46666666666664,508.6666666666667,500,500,500,502.0,502.0,502.0,502.0,502.0,502.0,502.0,502.0,502.0,502.0,502.0,502.0,502.0,502.0,502.0,502.0,502.0,502.0,502.0,502.0,510.0,510.0,510.0,510.0,510.0,510.0,510.0,510.0,510.0,510.0,510.0,510.0,510.0,510.0,510.0,510.0,510.0,505.0,505.0,505.0,509.0,509.0,509.0,509.0,509.0,509.0,509.0,509.0,509.0,509.0,509.0,509.0,509.0,509.0,509.0,509.0,509.0,504.0,504.0,504.0,502.0,505.0,504.0,502.0,510.0,509.0
0,5.0,10.0,8.0,502.6666666666667,507.5,504.76666666666665,500,500,500,502.0,502.0,502.0,502.0,502.0,502.0,502.0,502.0,502.0,502.0,502.0,502.0,502.0,502.0,502.0,507.0,507.0,507.0,507.0,507.0,505.0,505.0,505.0,505.0,505.0,505.0,505.0,505.0,505.0,505.0,505.0,505.0,505.0,505.0,505.0,515.0,515.0,515.0,515.0,515.0,504.0,504.0,504.0,504.0,504.0,504.0,504.0,504.0,504.0,504.0,504.0,504.0,504.0,504.0,504.0,501.0,501.0,501.0,501.0,501.0,502.0,505.0,501.0,507.0,515.0,504.0
0,5.0,11.0,3.0,506.3333333333333,513.9,502.1,500,500,500,507.0,507.0,507.0,507.0,507.0,507.0,507.0,507.0,507.0,507.0,507.0,507.0,507.0,507.0,507.0,507.0,507.0,507.0,507.0,507.0,515.0,515.0,515.0,515.0,515.0,515.0,515.0,515.0,515.0,515.0,515.0,515.0,516.0,516.0,516.0,516.0,516.0,516.0,516.0,516.0,501.0,501.0,501.0,501.0,501.0,501.0,501.0,501.0,501.0,501.0,501.0,501.0,504.0,504.0,504.0,504.0,504.0,504.0,504.0,504.0,507.0,515.0,501.0,507.0,516.0,504.0
0,4.0,6.0,5.0,507.53333333333336,514.8666666666667,503.26666666666665,500,500,500,507.0,507.0,507.0,507.0,507.0,507.0,507.0,507.0,507.0,507.0,507.0,507.0,507.0,507.0,507.0,507.0,511.0,511.0,511.0,511.0,516.0,516.0,516.0,516.0,516.0,516.0,516.0,516.0,516.0,516.0,516.0,516.0,516.0,516.0,516.0,516.0,510.0,510.0,510.0,510.0,504.0,504.0,504.0,504.0,504.0,504.0,504.0,504.0,504.0,504.0,504.0,504.0,504.0,504.0,504.0,504.0,506.0,506.0,506.0,506.0,507.0,510.0,504.0,511.0,516.0,506.0
0,4.0,6.0,6.0,510.46666666666664,510.8,507.46666666666664,500,500,500,511.0,511.0,511.0,511.0,511.0,511.0,511.0,511.0,511.0,511.0,511.0,511.0,511.0,511.0,511.0,511.0,511.0,511.0,511.0,511.0,510.0,510.0,510.0,510.0,510.0,510.0,510.0,510.0,510.0,510.0,510.0,510.0,510.0,510.0,510.0,510.0,510.0,510.0,510.0,510.0,506.0,506.0,506.0,506.0,506.0,506.0,510.0,510.0,510.0,510.0,510.0,510.0,510.0,510.0,510.0,510.0,510.0,510.0,510.0,510.0,511.0,510.0,506.0,511.0,510.0,510.0
0,1.0,6.0,1.0,510.73333333333335,511.4,510.26666666666665,500,500,500,511.0,511.0,511.0,510.0,510.0,510.0,510.0,510.0,510.0,510.0,510.0,511.0,511.0,511.0,511.0,511.0,511.0,511.0,511.0,511.0,510.0,510.0,510.0,510.0,510.0,510.0,510.0,510.0,510.0,510.0,510.0,516.0,516.0,516.0,516.0,516.0,516.0,516.0,516.0,516.0,510.0,510.0,510.0,511.0,511.0,511.0,511.0,511.0,511.0,511.0,511.0,510.0,510.0,510.0,510.0,510.0,510.0,510.0,510.0,510.0,510.0,510.0,510.0,511.0,516.0,511.0
0,1.0,7.0,3.0,510.73333333333335,515.3333333333334,509.8666666666667,500,500,500,511.0,511.0,511.0,511.0,511.0,511.0,511.0,511.0,511.0,511.0,511.0,511.0,511.0,511.0,511.0,510.0,510.0,510.0,510.0,510.0,516.0,516.0,516.0,516.0,516.0,516.0,516.0,516.0,516.0,516.0,516.0,516.0,516.0,516.0,516.0,517.0,517.0,517.0,517.0,517.0,510.0,510.0,510.0,510.0,510.0,510.0,510.0,510.0,510.0,510.0,510.0,510.0,510.0,510.0,510.0,508.0,508.0,508.0,508.0,508.0,510.0,516.0,508.0,511.0,517.0,510.0
0,1.0,7.0,5.0,510.3333333333333,516.0666666666667,508.1666666666667,500,500,500,510.0,510.0,510.0,510.0,510.0,510.0,510.0,510.0,510.0,510.0,510.0,510.0,510.0,510.0,510.0,510.0,510.0,511.0,511.0,511.0,517.0,517.0,517.0,517.0,517.0,517.0,517.0,517.0,517.0,517.0,517.0,517.0,517.0,517.0,517.0,517.0,517.0,510.0,510.0,510.0,508.0,508.0,508.0,508.0,508.0,508.0,508.0,508.0,508.0,508.0,508.0,508.0,508.0,508.0,508.0,508.0,508.0,505.0,505.0,505.0,510.0,510.0,505.0,511.0,517.0,508.0
0,1.0,3.0,3.0,510.46666666666664,508.4,503.4,500,500,500,511.0,511.0,511.0,510.0,510.0,510.0,510.0,510.0,510.0,510.0,510.0,510.0,510.0,510.0,510.0,510.0,510.0,510.0,510.0,510.0,510.0,510.0,510.0,507.0,507.0,507.0,507.0,507.0,507.0,507.0,507.0,507.0,507.0,507.0,507.0,507.0,507.0,507.0,507.0,507.0,505.0,505.0,505.0,502.0,502.0,502.0,502.0,502.0,502.0,502.0,502.0,502.0,502.0,502.0,502.0,502.0,502.0,502.0,502.0,502.0,510.0,507.0,502.0,511.0,510.0,505.0
0,3.0,7.0,8.0,510.7,503.5,504.4,500,500,500,510.0,510.0,510.0,510.0,510.0,510.0,510.0,510.0,510.0,510.0,510.0,510.0,510.0,513.0,513.0,513.0,513.0,513.0,513.0,513.0,507.0,507.0,507.0,507.0,507.0,500.0,500.0,500.0,500.0,500.0,500.0,500.0,500.0,500.0,500.0,500.0,500.0,500.0,500.0,500.0,502.0,502.0,502.0,502.0,502.0,504.0,504.0,504.0,504.0,504.0,504.0,504.0,504.0,510.0,510.0,510.0,510.0,510.0,510.0,510.0,510.0,500.0,502.0,513.0,507.0,510.0
0,3.0,7.0,8.0,511.4,501.56666666666666,506.8666666666667,500,500,500,510.0,510.0,513.0,513.0,513.0,513.0,513.0,513.0,513.0,513.0,513.0,513.0,513.0,513.0,510.0,510.0,510.0,510.0,510.0,510.0,500.0,500.0,500.0,500.0,500.0,500.0,500.0,500.0,500.0,500.0,500.0,500.0,500.0,500.0,504.0,504.0,504.0,504.0,504.0,504.0,504.0,504.0,510.0,510.0,510.0,510.0,510.0,510.0,510.0,510.0,510.0,510.0,510.0,510.0,508.0,508.0,508.0,508.0,508.0,508.0,510.0,500.0,504.0,513.0,504.0,510.0
0,3.0,4.0,5.0,510.1,503.26666666666665,507.46666666666664,500,500,500,510.0,510.0,510.0,510.0,510.0,510.0,510.0,510.0,510.0,510.0,510.0,510.0,510.0,510.0,510.0,510.0,510.0,510.0,510.0,510.0,504.0,504.0,504.0,504.0,504.0,504.0,504.0,504.0,504.0,504.0,504.0,504.0,504.0,501.0,501.0,501.0,501.0,501.0,501.0,501.0,508.0,508.0,508.0,508.0,508.0,508.0,508.0,508.0,508.0,508.0,508.0,508.0,508.0,505.0,505.0,505.0,505.0,505.0,505.0,505.0,510.0,501.0,505.0,510.0,504.0,508.0
0,3.0,3.0,4.0,508.5,502.0,502.1666666666667,500,500,500,509.0,509.0,509.0,509.0,509.0,509.0,509.0,509.0,509.0,507.0,507.0,507.0,507.0,507.0,507.0,507.0,507.0,507.0,507.0,507.0,501.0,501.0,501.0,501.0,501.0,501.0,501.0,501.0,501.0,504.0,504.0,504.0,504.0,504.0,504.0,504.0,504.0,504.0,504.0,504.0,502.0,502.0,502.0,502.0,502.0,502.0,502.0,502.0,502.0,501.0,501.0,501.0,501.0,501.0,501.0,501.0,501.0,501.0,501.0,501.0,507.0,501.0,501.0,509.0,504.0,502.0
0,0.0,2.0,1.0,507.0,505.0,500.5,500,500,500,507.0,507.0,507.0,507.0,507.0,507.0,507.0,507.0,507.0,507.0,507.0,507.0,507.0,507.0,507.0,507.0,507.0,507.0,507.0,507.0,504.0,504.0,504.0,504.0,504.0,506.0,506.0,506.0,506.0,506.0,506.0,506.0,506.0,506.0,506.0,506.0,506.0,506.0,506.0,506.0,501.0,501.0,501.0,501.0,501.0,500.0,500.0,500.0,500.0,500.0,500.0,500.0,500.0,500.0,500.0,500.0,500.0,500.0,500.0,500.0,507.0,504.0,500.0,507.0,506.0,501.0
0,6.0,8.0,2.0,504.4,508.53333333333336,499.6,500,500,500,507.0,507.0,507.0,507.0,507.0,507.0,507.0,501.0,501.0,501.0,501.0,501.0,501.0,501.0,501.0,501.0,501.0,501.0,501.0,501.0,506.0,506.0,506.0,506.0,506.0,506.0,506.0,512.0,512.0,512.0,512.0,512.0,512.0,512.0,512.0,512.0,512.0,512.0,512.0,512.0,500.0,500.0,500.0,500.0,500.0,500.0,500.0,499.0,499.0,499.0,499.0,499.0,499.0,499.0,499.0,499.0,499.0,499.0,499.0,499.0,501.0,506.0,499.0,507.0,512.0,500.0
0,2.0,3.0,3.0,498.1333333333333,518.3,503.7,500,500,500,497.0,497.0,497.0,499.0,499.0,499.0,499.0,499.0,499.0,499.0,499.0,499.0,499.0,499.0,499.0,499.0,499.0,499.0,504.0,504.0,520.0,520.0,520.0,517.0,517.0,517.0,517.0,517.0,517.0,517.0,517.0,517.0,517.0,517.0,517.0,517.0,517.0,517.0,514.0,514.0,502.0,502.0,502.0,505.0,505.0,505.0,505.0,505.0,505.0,505.0,505.0,505.0,505.0,505.0,505.0,505.0,505.0,505.0,503.0,503.0,497.0,517.0,502.0,499.0,520.0,505.0
0,7.0,8.0,3.0,504.0,512.1,502.9,500,500,500,504.0,504.0,504.0,504.0,504.0,506.0,506.0,506.0,506.0,506.0,506.0,506.0,506.0,506.0,506.0,506.0,506.0,506.0,506.0,506.0,514.0,514.0,514.0,514.0,514.0,509.0,509.0,509.0,509.0,509.0,509.0,509.0,509.0,509.0,509.0,509.0,509.0,509.0,509.0,509.0,503.0,503.0,503.0,503.0,503.0,502.0,502.0,502.0,502.0,502.0,502.0,502.0,502.0,502.0,502.0,502.0,502.0,502.0,502.0,502.0,504.0,509.0,502.0,506.0,514.0,503.0
0,4.0,1.0,3.0,508.0,508.6333333333333,503.23333333333335,500,500,500,506.0,506.0,506.0,506.0,510.0,510.0,510.0,510.0,510.0,510.0,510.0,510.0,510.0,510.0,510.0,510.0,510.0,510.0,510.0,510.0,509.0,509.0,509.0,509.0,508.0,508.0,508.0,508.0,508.0,508.0,508.0,509.0,509.0,509.0,509.0,509.0,509.0,509.0,509.0,509.0,502.0,502.0,502.0,502.0,505.0,505.0,505.0,505.0,505.0,505.0,505.0,503.0,503.0,503.0,503.0,503.0,503.0,503.0,503.0,503.0,506.0,508.0,502.0,510.0,509.0,505.0
0,4.0,6.0,2.0,512.5333333333333,512.8,501.73333333333335,500,500,500,510.0,514.0,514.0,514.0,514.0,514.0,514.0,514.0,514.0,514.0,514.0,514.0,514.0,514.0,514.0,514.0,514.0,514.0,511.0,511.0,509.0,515.0,515.0,515.0,515.0,515.0,515.0,515.0,515.0,515.0,515.0,515.0,515.0,515.0,515.0,515.0,515.0,515.0,514.0,514.0,503.0,501.0,501.0,501.0,501.0,501.0,501.0,501.0,501.0,501.0,501.0,501.0,501.0,501.0,501.0,501.0,501.0,501.0,504.0,504.0,510.0,509.0,501.0,514.0,515.0,503.0
0,3.0,6.0,12.0,511.3,512.1,507.3,500,500,500,511.0,511.0,511.0,511.0,511.0,511.0,511.0,511.0,511.0,511.0,511.0,511.0,511.0,511.0,511.0,511.0,511.0,511.0,511.0,511.0,514.0,514.0,514.0,514.0,514.0,514.0,514.0,514.0,509.0,509.0,509.0,509.0,509.0,509.0,509.0,509.0,509.0,509.0,509.0,509.0,504.0,504.0,504.0,504.0,504.0,504.0,504.0,504.0,513.0,513.0,513.0,513.0,513.0,513.0,513.0,513.0,513.0,513.0,513.0,513.0,511.0,509.0,504.0,511.0,514.0,513.0
0,2.0,5.0,9.0,510.8333333333333,510.46666666666664,509.96666666666664,500,500,500,511.0,511.0,511.0,511.0,511.0,511.0,511.0,511.0,511.0,511.0,511.0,510.0,510.0,510.0,510.0,510.0,510.0,512.0,512.0,512.0,509.0,509.0,509.0,509.0,509.0,509.0,509.0,509.0,509.0,509.0,509.0,512.0,512.0,512.0,512.0,512.0,512.0,513.0,513.0,513.0,513.0,513.0,513.0,513.0,513.0,513.0,513.0,513.0,513.0,513.0,505.0,505.0,505.0,505.0,505.0,505.0,505.0,509.0,509.0,509.0,510.0,509.0,505.0,512.0,513.0,513.0
0,2.0,4.0,8.0,511.3666666666667,512.1,508.73333333333335,500,500,500,510.0,510.0,512.0,512.0,512.0,512.0,512.0,512.0,512.0,512.0,512.0,512.0,512.0,512.0,512.0,512.0,512.0,512.0,512.0,511.0,512.0,512.0,513.0,513.0,513.0,513.0,513.0,513.0,513.0,513.0,513.0,513.0,513.0,513.0,513.0,513.0,513.0,513.0,513.0,514.0,505.0,505.0,509.0,509.0,509.0,509.0,509.0,509.0,509.0,509.0,509.0,509.0,509.0,509.0,509.0,509.0,509.0,509.0,509.0,515.0,510.0,512.0,505.0,512.0,513.0,509.0
0,2.0,1.0,8.0,511.8333333333333,513.5,511.3333333333333,500,500,500,511.0,511.0,511.0,511.0,511.0,511.0,511.0,511.0,511.0,513.0,513.0,513.0,513.0,513.0,513.0,513.0,513.0,513.0,513.0,513.0,514.0,514.0,514.0,514.0,514.0,514.0,514.0,514.0,514.0,513.0,513.0,513.0,513.0,513.0,513.0,513.0,513.0,513.0,513.0,513.0,515.0,515.0,515.0,515.0,515.0,515.0,515.0,515.0,515.0,507.0,507.0,507.0,507.0,507.0,507.0,507.0,507.0,507.0,507.0,507.0,511.0,513.0,507.0,513.0,514.0,515.0
0,4.0,6.0,8.0,513.4666666666667,511.3,508.8,500,500,500,513.0,513.0,513.0,513.0,513.0,513.0,513.0,513.0,515.0,515.0,515.0,515.0,515.0,515.0,515.0,515.0,515.0,512.0,512.0,512.0,513.0,513.0,513.0,513.0,513.0,513.0,513.0,513.0,508.0,508.0,508.0,508.0,508.0,508.0,508.0,508.0,508.0,504.0,504.0,504.0,507.0,507.0,507.0,507.0,507.0,507.0,507.0,509.0,509.0,509.0,509.0,509.0,509.0,509.0,509.0,509.0,509.0,509.0,509.0,509.0,513.0,508.0,507.0,515.0,513.0,509.0
0,5.0,8.0,2.0,511.2,502.26666666666665,508.0,500,500,500,512.0,512.0,512.0,512.0,510.0,510.0,510.0,510.0,510.0,510.0,510.0,510.0,510.0,510.0,510.0,510.0,510.0,510.0,510.0,510.0,504.0,504.0,504.0,504.0,500.0,500.0,500.0,500.0,500.0,500.0,500.0,500.0,500.0,500.0,500.0,500.0,500.0,500.0,500.0,500.0,509.0,509.0,509.0,509.0,507.0,507.0,507.0,507.0,507.0,507.0,507.0,507.0,507.0,507.0,507.0,507.0,507.0,507.0,507.0,507.0,510.0,500.0,507.0,512.0,504.0,509.0
0,4.0,4.0,3.0,506.43333333333334,502.6666666666667,506.93333333333334,500,500,500,506.0,506.0,506.0,506.0,506.0,506.0,506.0,506.0,506.0,506.0,506.0,506.0,506.0,506.0,506.0,506.0,506.0,506.0,506.0,506.0,504.0,504.0,504.0,504.0,504.0,504.0,504.0,504.0,504.0,504.0,504.0,504.0,504.0,504.0,504.0,504.0,504.0,504.0,504.0,504.0,506.0,506.0,506.0,506.0,506.0,506.0,506.0,506.0,506.0,506.0,506.0,506.0,506.0,506.0,506.0,506.0,506.0,506.0,506.0,506.0,506.0,504.0,506.0,506.0,504.0,506.0
0,3.0,1.0,5.0,507.26666666666665,503.5,506.6666666666667,500,500,500,506.0,506.0,506.0,509.0,509.0,509.0,509.0,509.0,509.0,508.0,508.0,508.0,508.0,508.0,508.0,508.0,508.0,508.0,508.0,508.0,504.0,504.0,504.0,503.0,503.0,503.0,503.0,503.0,503.0,503.0,503.0,503.0,503.0,503.0,503.0,503.0,503.0,503.0,503.0,503.0,506.0,506.0,506.0,505.0,505.0,505.0,505.0,505.0,505.0,510.0,510.0,510.0,510.0,510.0,510.0,510.0,510.0,510.0,510.0,510.0,506.0,503.0,505.0,509.0,504.0,510.0
0,1.0,0.0,5.0,508.1,503.0,509.5,500,500,500,508.0,508.0,508.0,508.0,508.0,508.0,508.0,508.0,508.0,508.0,508.0,508.0,508.0,508.0,508.0,508.0,508.0,508.0,508.0,508.0,503.0,503.0,503.0,503.0,503.0,503.0,503.0,503.0,503.0,503.0,503.0,503.0,503.0,503.0,503.0,503.0,503.0,503.0,503.0,503.0,510.0,510.0,510.0,510.0,510.0,510.0,510.0,510.0,510.0,510.0,510.0,510.0,510.0,510.0,510.0,510.0,510.0,510.0,510.0,510.0,508.0,503.0,510.0,508.0,503.0,510.0
0,2.0,7.0,1.0,507.0,506.5,510.5,500,500,500,508.0,508.0,508.0,508.0,508.0,506.0,506.0,506.0,506.0,506.0,506.0,506.0,506.0,506.0,506.0,506.0,506.0,506.0,506.0,506.0,503.0,503.0,503.0,503.0,503.0,510.0,510.0,510.0,510.0,510.0,510.0,510.0,510.0,510.0,510.0,510.0,510.0,510.0,510.0,510.0,510.0,510.0,510.0,510.0,510.0,511.0,511.0,511.0,511.0,511.0,511.0,511.0,511.0,511.0,511.0,511.0,511.0,511.0,511.0,511.0,506.0,503.0,510.0,508.0,510.0,511.0
0,5.0,14.0,9.0,502.6333333333333,512.8666666666667,515.1333333333333,500,500,500,503.0,503.0,503.0,503.0,503.0,503.0,503.0,503.0,503.0,503.0,501.0,501.0,501.0,501.0,501.0,501.0,501.0,501.0,501.0,501.0,508.0,508.0,508.0,508.0,508.0,508.0,508.0,508.0,508.0,508.0,522.0,522.0,522.0,522.0,522.0,522.0,522.0,522.0,522.0,522.0,513.0,513.0,513.0,513.0,513.0,513.0,513.0,513.0,513.0,513.0,520.0,520.0,520.0,520.0,520.0,520.0,520.0,520.0,520.0,520.0,501.0,508.0,513.0,503.0,522.0,520.0
0,5.0,8.0,2.0,502.8333333333333,521.6,519.0,500,500,500,501.0,501.0,501.0,501.0,501.0,501.0,501.0,501.0,501.0,506.0,506.0,506.0,506.0,506.0,506.0,506.0,506.0,506.0,506.0,506.0,522.0,526.0,526.0,526.0,526.0,526.0,526.0,526.0,526.0,518.0,518.0,518.0,518.0,518.0,518.0,518.0,518.0,518.0,518.0,518.0,520.0,519.0,519.0,519.0,519.0,519.0,519.0,519.0,519.0,518.0,518.0,518.0,518.0,518.0,518.0,518.0,518.0,518.0,518.0,518.0,501.0,518.0,518.0,506.0,526.0,520.0
0,5.0,5.0,10.0,508.4,515.6,513.2,500,500,500,506.0,506.0,509.0,509.0,509.0,509.0,509.0,509.0,509.0,509.0,511.0,511.0,511.0,511.0,511.0,511.0,511.0,511.0,511.0,511.0,518.0,518.0,515.0,515.0,515.0,515.0,515.0,515.0,515.0,515.0,513.0,513.0,513.0,513.0,513.0,513.0,513.0,513.0,513.0,513.0,518.0,518.0,512.0,512.0,512.0,512.0,512.0,512.0,512.0,512.0,508.0,508.0,508.0,508.0,508.0,508.0,508.0,508.0,508.0,508.0,506.0,513.0,508.0,511.0,518.0,518.0
0,3.0,3.0,7.0,512.0333333333333,512.8,505.1333333333333,500,500,500,511.0,511.0,512.0,512.0,512.0,512.0,512.0,512.0,512.0,512.0,512.0,514.0,514.0,514.0,514.0,514.0,514.0,514.0,514.0,514.0,513.0,513.0,514.0,514.0,514.0,514.0,514.0,514.0,514.0,514.0,514.0,511.0,511.0,511.0,511.0,511.0,511.0,511.0,511.0,511.0,508.0,508.0,505.0,505.0,505.0,505.0,505.0,505.0,505.0,505.0,505.0,501.0,501.0,501.0,501.0,501.0,501.0,501.0,501.0,501.0,511.0,511.0,501.0,514.0,514.0,508.0
0,7.0,3.0,7.0,515.9333333333333,511.5,502.06666666666666,500,500,500,514.0,514.0,514.0,519.0,519.0,519.0,519.0,519.0,519.0,519.0,519.0,519.0,519.0,514.0,514.0,514.0,514.0,514.0,514.0,514.0,511.0,511.0,511.0,511.0,511.0,511.0,511.0,511.0,511.0,511.0,511.0,511.0,511.0,514.0,514.0,514.0,514.0,514.0,514.0,514.0,501.0,501.0,501.0,501.0,501.0,501.0,501.0,501.0,501.0,501.0,501.0,501.0,501.0,508.0,508.0,508.0,508.0,508.0,508.0,508.0,514.0,511.0,501.0,519.0,514.0,508.0
0,5.0,3.0,7.0,515.3666666666667,512.7,506.3,500,500,500,514.0,514.0,514.0,514.0,514.0,514.0,514.0,514.0,514.0,514.0,514.0,514.0,516.0,516.0,516.0,516.0,516.0,516.0,516.0,516.0,514.0,514.0,514.0,514.0,514.0,514.0,514.0,514.0,514.0,514.0,514.0,514.0,511.0,511.0,511.0,511.0,511.0,511.0,511.0,511.0,508.0,508.0,508.0,508.0,508.0,508.0,508.0,508.0,508.0,508.0,508.0,508.0,506.0,506.0,506.0,506.0,506.0,506.0,506.0,506.0,514.0,511.0,506.0,516.0,514.0,508.0
0,4.0,2.0,3.0,518.0,510.0,504.5,500,500,500,516.0,516.0,516.0,516.0,520.0,520.0,520.0,520.0,520.0,520.0,520.0,520.0,520.0,520.0,520.0,520.0,520.0,520.0,520.0,520.0,511.0,511.0,511.0,511.0,509.0,509.0,509.0,509.0,509.0,509.0,509.0,509.0,509.0,509.0,509.0,509.0,509.0,509.0,509.0,509.0,506.0,506.0,506.0,506.0,503.0,503.0,503.0,503.0,503.0,503.0,503.0,503.0,503.0,503.0,503.0,503.0,503.0,503.0,503.0,503.0,516.0,509.0,503.0,520.0,511.0,506.0
0,12.0,4.0,1.0,516.1333333333333,511.23333333333335,502.46666666666664,500,500,500,520.0,515.0,515.0,515.0,515.0,515.0,515.0,515.0,515.0,515.0,515.0,515.0,515.0,508.0,508.0,508.0,508.0,508.0,508.0,508.0,509.0,513.0,513.0,513.0,513.0,513.0,513.0,513.0,513.0,513.0,513.0,513.0,513.0,510.0,510.0,510.0,510.0,510.0,510.0,510.0,503.0,502.0,502.0,502.0,502.0,502.0,502.0,502.0,502.0,502.0,502.0,502.0,502.0,503.0,503.0,503.0,503.0,503.0,503.0,503.0,508.0,509.0,502.0,520.0,513.0,503.0
0,1.0,6.0,3.0,508.43333333333334,507.4,504.3,500,500,500,508.0,508.0,508.0,508.0,508.0,508.0,508.0,509.0,509.0,509.0,509.0,509.0,509.0,509.0,509.0,509.0,509.0,509.0,509.0,509.0,510.0,510.0,510.0,510.0,510.0,510.0,510.0,504.0,504.0,504.0,504.0,504.0,504.0,504.0,504.0,504.0,504.0,504.0,504.0,504.0,503.0,503.0,503.0,503.0,503.0,503.0,503.0,506.0,506.0,506.0,506.0,506.0,506.0,506.0,506.0,506.0,506.0,506.0,506.0,506.0,508.0,504.0,503.0,509.0,510.0,506.0
0,1.0,7.0,10.0,509.1,502.0,505.53333333333336,500,500,500,509.0,509.0,509.0,509.0,509.0,509.0,509.0,509.0,509.0,509.0,509.0,509.0,509.0,509.0,509.0,509.0,509.0,510.0,510.0,510.0,504.0,504.0,504.0,504.0,501.0,501.0,501.0,501.0,501.0,501.0,501.0,501.0,501.0,501.0,501.0,501.0,501.0,497.0,497.0,497.0,506.0,506.0,506.0,506.0,507.0,507.0,507.0,507.0,507.0,507.0,507.0,507.0,507.0,507.0,507.0,507.0,507.0,497.0,497.0,497.0,509.0,497.0,497.0,510.0,504.0,507.0
0,1.0,2.0,4.0,509.46666666666664,498.06666666666666,494.8666666666667,500,500,500,510.0,510.0,510.0,510.0,509.0,509.0,509.0,509.0,509.0,509.0,509.0,509.0,509.0,509.0,509.0,509.0,509.0,509.0,509.0,509.0,497.0,497.0,497.0,497.0,499.0,499.0,499.0,499.0,499.0,499.0,499.0,499.0,499.0,499.0,499.0,499.0,499.0,499.0,499.0,499.0,497.0,497.0,497.0,497.0,493.0,493.0,493.0,493.0,493.0,493.0,493.0,493.0,493.0,493.0,493.0,493.0,493.0,493.0,493.0,493.0,509.0,497.0,493.0,510.0,499.0,497.0
0,5.0,5.0,16.0,507.6,502.0,501.8,500,500,500,509.0,504.0,504.0,504.0,504.0,504.0,508.0,508.0,508.0,508.0,508.0,508.0,508.0,508.0,508.0,508.0,508.0,508.0,509.0,509.0,499.0,504.0,504.0,504.0,504.0,504.0,504.0,504.0,504.0,504.0,504.0,504.0,504.0,504.0,504.0,504.0,504.0,504.0,504.0,504.0,493.0,505.0,505.0,505.0,505.0,509.0,509.0,509.0,509.0,509.0,509.0,509.0,509.0,509.0,509.0,509.0,509.0,509.0,502.0,502.0,504.0,499.0,493.0,509.0,504.0,509.0
0,4.0,4.0,9.0,510.6333333333333,506.4,501.96666666666664,500,500,500,512.0,512.0,512.0,512.0,512.0,512.0,512.0,512.0,512.0,512.0,512.0,512.0,512.0,512.0,512.0,512.0,512.0,512.0,512.0,512.0,508.0,508.0,508.0,508.0,508.0,508.0,508.0,508.0,508.0,508.0,508.0,508.0,508.0,508.0,508.0,508.0,508.0,508.0,508.0,508.0,500.0,500.0,500.0,500.0,500.0,500.0,500.0,500.0,500.0,500.0,500.0,500.0,500.0,500.0,500.0,500.0,500.0,500.0,500.0,500.0,509.0,504.0,500.0,512.0,508.0,500.0
0,6.0,7.0,6.0,509.8666666666667,510.3333333333333,501.43333333333334,500,500,500,512.0,512.0,512.0,512.0,512.0,512.0,512.0,508.0,508.0,508.0,508.0,508.0,508.0,508.0,506.0,506.0,506.0,506.0,506.0,506.0,508.0,508.0,508.0,508.0,508.0,508.0,508.0,512.0,512.0,512.0,512.0,512.0,512.0,512.0,515.0,515.0,515.0,515.0,515.0,515.0,500.0,500.0,500.0,500.0,500.0,500.0,500.0,501.0,501.0,501.0,501.0,501.0,501.0,501.0,506.0,506.0,506.0,506.0,506.0,506.0,506.0,508.0,500.0,512.0,515.0,506.0
0,2.0,1.0,6.0,504.8666666666667,514.4333333333333,502.6,500,500,500,506.0,506.0,506.0,504.0,504.0,504.0,504.0,504.0,504.0,504.0,504.0,504.0,504.0,504.0,504.0,504.0,504.0,504.0,504.0,504.0,515.0,515.0,515.0,514.0,514.0,514.0,514.0,514.0,514.0,514.0,514.0,514.0,514.0,514.0,514.0,514.0,514.0,514.0,514.0,514.0,506.0,506.0,506.0,500.0,500.0,500.0,500.0,500.0,500.0,500.0,500.0,500.0,500.0,500.0,500.0,500.0,500.0,500.0,500.0,500.0,504.0,514.0,500.0,506.0,515.0,506.0
0,3.0,7.0,7.0,505.3,513.1666666666666,502.6333333333333,500,500,500,504.0,504.0,504.0,504.0,504.0,504.0,504.0,507.0,507.0,507.0,507.0,507.0,507.0,507.0,507.0,507.0,507.0,507.0,507.0,507.0,514.0,514.0,514.0,514.0,514.0,514.0,514.0,513.0,513.0,513.0,513.0,513.0,513.0,513.0,513.0,513.0,513.0,513.0,507.0,507.0,500.0,500.0,500.0,500.0,500.0,500.0,500.0,507.0,507.0,507.0,507.0,507.0,507.0,507.0,507.0,507.0,507.0,507.0,501.0,501.0,504.0,507.0,500.0,507.0,514.0,507.0
0,2.0,5.0,20.0,505.6666666666667,506.73333333333335,511.06666666666666,500,500,500,505.0,505.0,505.0,505.0,505.0,505.0,505.0,505.0,505.0,505.0,505.0,505.0,505.0,505.0,505.0,505.0,505.0,505.0,505.0,505.0,508.0,508.0,508.0,508.0,508.0,508.0,508.0,508.0,508.0,508.0,508.0,508.0,508.0,508.0,508.0,508.0,508.0,503.0,503.0,503.0,516.0,516.0,516.0,516.0,516.0,516.0,516.0,516.0,516.0,516.0,516.0,516.0,516.0,516.0,516.0,516.0,516.0,520.0,520.0,520.0,505.0,503.0,516.0,505.0,508.0,520.0
0,4.0,9.0,4.0,506.2,502.6333333333333,519.3333333333334,500,500,500,505.0,505.0,505.0,505.0,505.0,505.0,505.0,505.0,505.0,509.0,509.0,509.0,509.0,509.0,509.0,509.0,509.0,509.0,509.0,509.0,503.0,503.0,503.0,503.0,503.0,503.0,503.0,503.0,503.0,499.0,499.0,499.0,499.0,499.0,499.0,499.0,499.0,499.0,499.0,499.0,520.0,520.0,520.0,520.0,520.0,520.0,520.0,520.0,520.0,520.0,520.0,520.0,520.0,520.0,520.0,520.0,520.0,520.0,520.0,520.0,505.0,499.0,520.0,509.0,503.0,520.0
0,9.0,8.0,17.0,516.2333333333333,496.8666666666667,529.9,500,500,500,517.0,517.0,517.0,518.0,518.0,518.0,518.0,518.0,518.0,518.0,518.0,518.0,518.0,518.0,518.0,518.0,518.0,518.0,518.0,518.0,491.0,491.0,491.0,499.0,499.0,499.0,499.0,499.0,499.0,499.0,499.0,499.0,499.0,499.0,499.0,499.0,499.0,499.0,499.0,499.0,521.0,521.0,521.0,537.0,537.0,537.0,537.0,537.0,537.0,537.0,537.0,537.0,537.0,537.0,537.0,537.0,537.0,537.0,537.0,537.0,517.0,491.0,521.0,518.0,499.0,537.0
0,6.0,3.0,10.0,513.2,507.5,527.0,500,500,500,516.0,516.0,516.0,510.0,510.0,510.0,510.0,510.0,510.0,510.0,510.0,510.0,510.0,510.0,510.0,510.0,510.0,510.0,513.0,513.0,509.0,509.0,506.0,506.0,506.0,506.0,506.0,506.0,506.0,506.0,506.0,506.0,506.0,506.0,506.0,506.0,506.0,506.0,497.0,497.0,532.0,532.0,522.0,522.0,522.0,522.0,522.0,522.0,522.0,522.0,522.0,522.0,522.0,522.0,522.0,522.0,522.0,522.0,517.0,517.0,510.0,506.0,522.0,516.0,509.0,532.0
0,3.0,9.0,5.0,511.8,500.6,519.0,500,500,500,510.0,513.0,513.0,513.0,513.0,513.0,513.0,513.0,513.0,513.0,513.0,513.0,513.0,513.0,513.0,513.0,513.0,513.0,513.0,513.0,506.0,497.0,497.0,497.0,497.0,497.0,497.0,497.0,497.0,497.0,497.0,497.0,497.0,497.0,497.0,497.0,497.0,497.0,497.0,497.0,522.0,517.0,517.0,517.0,517.0,517.0,517.0,517.0,517.0,517.0,517.0,517.0,517.0,517.0,517.0,517.0,517.0,517.0,517.0,517.0,510.0,497.0,517.0,513.0,506.0,522.0
0,14.0,7.0,13.0,501.9,502.8,527.1,500,500,500,499.0,499.0,499.0,499.0,499.0,502.0,502.0,502.0,502.0,502.0,502.0,502.0,502.0,502.0,502.0,502.0,502.0,502.0,502.0,502.0,504.0,504.0,504.0,504.0,504.0,503.0,503.0,503.0,503.0,503.0,503.0,503.0,503.0,503.0,503.0,503.0,503.0,503.0,503.0,503.0,526.0,526.0,526.0,526.0,526.0,530.0,530.0,530.0,530.0,530.0,530.0,530.0,530.0,530.0,530.0,530.0,530.0,530.0,530.0,530.0,499.0,503.0,526.0,502.0,504.0,530.0
0,4.0,2.0,21.0,503.03333333333336,502.53333333333336,522.7,500,500,500,502.0,502.0,502.0,502.0,502.0,502.0,506.0,506.0,506.0,506.0,506.0,503.0,503.0,503.0,503.0,503.0,503.0,503.0,503.0,503.0,503.0,503.0,503.0,503.0,503.0,503.0,503.0,503.0,503.0,503.0,503.0,501.0,501.0,501.0,501.0,501.0,501.0,501.0,501.0,501.0,530.0,530.0,530.0,530.0,530.0,530.0,518.0,518.0,518.0,518.0,518.0,509.0,509.0,509.0,509.0,509.0,509.0,509.0,509.0,509.0,502.0,501.0,509.0,506.0,503.0,530.0
0,3.0,7.0,9.0,503.1,500.23333333333335,509.46666666666664,500,500,500,503.0,503.0,503.0,503.0,503.0,503.0,503.0,503.0,503.0,503.0,503.0,503.0,503.0,503.0,503.0,503.0,503.0,503.0,503.0,503.0,501.0,501.0,501.0,501.0,501.0,501.0,501.0,501.0,501.0,501.0,501.0,501.0,501.0,501.0,501.0,496.0,496.0,496.0,496.0,496.0,509.0,509.0,509.0,509.0,509.0,509.0,509.0,509.0,509.0,509.0,509.0,509.0,509.0,509.0,509.0,510.0,510.0,510.0,510.0,510.0,503.0,496.0,509.0,503.0,501.0,510.0
0,1.0,1.0,3.0,503.4,495.6,508.8,500,500,500,503.0,503.0,503.0,503.0,503.0,503.0,503.0,503.0,504.0,504.0,504.0,504.0,504.0,504.0,504.0,504.0,504.0,504.0,504.0,504.0,496.0,496.0,496.0,496.0,496.0,496.0,496.0,496.0,495.0,495.0,495.0,495.0,495.0,495.0,495.0,495.0,495.0,495.0,495.0,495.0,510.0,510.0,510.0,510.0,510.0,510.0,510.0,510.0,507.0,507.0,507.0,507.0,507.0,507.0,507.0,507.0,507.0,507.0,507.0,507.0,503.0,495.0,507.0,504.0,496.0,510.0
0,3.0,4.0,2.0,503.0,493.06666666666666,508.26666666666665,500,500,500,504.0,504.0,504.0,504.0,504.0,504.0,504.0,504.0,501.0,501.0,501.0,501.0,501.0,501.0,501.0,501.0,501.0,501.0,501.0,501.0,494.0,494.0,494.0,494.0,494.0,494.0,494.0,494.0,491.0,491.0,491.0,491.0,491.0,491.0,491.0,491.0,491.0,491.0,491.0,491.0,508.0,508.0,508.0,508.0,508.0,508.0,508.0,508.0,509.0,509.0,509.0,509.0,509.0,509.0,509.0,509.0,509.0,509.0,509.0,509.0,501.0,491.0,508.0,504.0,494.0,509.0
0,4.0,0.0,1.0,502.6,491.0,509.4,500,500,500,501.0,501.0,501.0,501.0,501.0,501.0,501.0,505.0,505.0,505.0,505.0,505.0,505.0,505.0,505.0,505.0,505.0,505.0,505.0,505.0,491.0,491.0,491.0,491.0,491.0,491.0,491.0,491.0,491.0,491.0,491.0,491.0,491.0,491.0,491.0,491.0,491.0,491.0,491.0,491.0,509.0,509.0,509.0,509.0,509.0,509.0,510.0,510.0,510.0,510.0,510.0,510.0,510.0,510.0,510.0,510.0,510.0,510.0,510.0,510.0,501.0,491.0,509.0,505.0,491.0,510.0
0,3.0,9.0,4.0,503.06666666666666,498.1333333333333,512.8,500,500,500,504.0,504.0,504.0,504.0,502.0,502.0,502.0,502.0,502.0,502.0,502.0,502.0,502.0,502.0,502.0,502.0,502.0,502.0,502.0,502.0,498.0,498.0,498.0,498.0,500.0,500.0,500.0,500.0,500.0,500.0,500.0,500.0,500.0,500.0,500.0,500.0,500.0,500.0,500.0,500.0,512.0,512.0,512.0,512.0,514.0,514.0,514.0,514.0,514.0,514.0,514.0,514.0,514.0,514.0,514.0,514.0,514.0,514.0,514.0,514.0,502.0,498.0,512.0,504.0,500.0,514.0
0,4.0,3.0,4.0,500.4,498.26666666666665,516.4,500,500,500,502.0,502.0,502.0,502.0,502.0,502.0,502.0,502.0,498.0,498.0,498.0,498.0,498.0,498.0,498.0,498.0,498.0,498.0,498.0,498.0,498.0,498.0,498.0,498.0,498.0,498.0,498.0,498.0,497.0,497.0,497.0,497.0,497.0,497.0,497.0,497.0,497.0,497.0,497.0,497.0,517.0,517.0,517.0,517.0,517.0,517.0,517.0,517.0,518.0,518.0,518.0,518.0,518.0,518.0,518.0,518.0,518.0,518.0,518.0,518.0,498.0,497.0,517.0,502.0,498.0,518.0
0,2.0,14.0,14.0,497.8333333333333,496.56666666666666,518.4333333333333,500,500,500,498.0,498.0,498.0,498.0,498.0,498.0,498.0,498.0,498.0,497.0,497.0,497.0,497.0,497.0,497.0,497.0,499.0,499.0,499.0,499.0,497.0,497.0,497.0,497.0,497.0,497.0,497.0,497.0,497.0,492.0,492.0,492.0,492.0,492.0,492.0,492.0,506.0,506.0,506.0,506.0,518.0,518.0,518.0,518.0,518.0,518.0,518.0,518.0,523.0,523.0,523.0,523.0,523.0,523.0,523.0,523.0,509.0,509.0,509.0,509.0,497.0,492.0,509.0,499.0,506.0,523.0
0,5.0,17.0,18.0,498.56666666666666,501.56666666666666,513.3666666666667,500,500,500,497.0,499.0,499.0,499.0,499.0,499.0,499.0,499.0,499.0,499.0,499.0,499.0,499.0,499.0,499.0,499.0,499.0,499.0,502.0,502.0,492.0,506.0,506.0,506.0,506.0,506.0,506.0,506.0,506.0,506.0,506.0,506.0,506.0,506.0,506.0,506.0,506.0,506.0,509.0,509.0,523.0,509.0,509.0,509.0,509.0,509.0,509.0,509.0,509.0,509.0,509.0,509.0,509.0,509.0,509.0,509.0,509.0,509.0,505.0,505.0,497.0,492.0,505.0,502.0,509.0,523.0
0,8.0,4.0,16.0,503.0,508.8,502.06666666666666,500,500,500,502.0,502.0,502.0,502.0,502.0,502.0,502.0,502.0,502.0,507.0,507.0,507.0,507.0,507.0,507.0,507.0,507.0,507.0,507.0,507.0,509.0,509.0,509.0,509.0,509.0,509.0,509.0,509.0,509.0,510.0,510.0,510.0,510.0,510.0,510.0,510.0,510.0,510.0,510.0,510.0,505.0,505.0,505.0,505.0,505.0,505.0,505.0,505.0,505.0,493.0,493.0,493.0,493.0,493.0,493.0,493.0,493.0,493.0,493.0,493.0,502.0,509.0,493.0,507.0,510.0,505.0
0,5.0,5.0,5.0,510.5,511.96666666666664,496.0,500,500,500,512.0,512.0,512.0,512.0,512.0,512.0,512.0,512.0,512.0,512.0,512.0,512.0,512.0,512.0,512.0,512.0,512.0,512.0,512.0,512.0,509.0,509.0,509.0,509.0,514.0,514.0,514.0,514.0,514.0,514.0,514.0,514.0,514.0,514.0,514.0,514.0,514.0,514.0,514.0,514.0,495.0,495.0,495.0,495.0,498.0,498.0,498.0,498.0,498.0,498.0,498.0,498.0,498.0,498.0,498.0,498.0,498.0,498.0,498.0,498.0,512.0,509.0,495.0,512.0,514.0,498.0
0,5.0,6.0,10.0,509.23333333333335,517.2666666666667,504.3333333333333,500,500,500,511.0,511.0,511.0,511.0,511.0,507.0,507.0,507.0,507.0,507.0,507.0,507.0,507.0,507.0,507.0,507.0,507.0,507.0,507.0,507.0,515.0,515.0,515.0,515.0,515.0,520.0,520.0,520.0,520.0,520.0,520.0,520.0,520.0,520.0,520.0,520.0,520.0,520.0,520.0,520.0,503.0,503.0,503.0,503.0,503.0,508.0,508.0,508.0,508.0,508.0,508.0,508.0,508.0,508.0,508.0,508.0,508.0,508.0,508.0,508.0,507.0,515.0,503.0,511.0,520.0,508.0
0,4.0,8.0,8.0,508.5,517.1,511.2,500,500,500,507.0,507.0,507.0,507.0,507.0,507.0,507.0,507.0,510.0,510.0,510.0,511.0,511.0,511.0,511.0,511.0,511.0,511.0,511.0,511.0,520.0,520.0,520.0,520.0,520.0,520.0,520.0,520.0,515.0,515.0,515.0,512.0,512.0,512.0,512.0,512.0,512.0,512.0,512.0,512.0,508.0,508.0,508.0,508.0,508.0,508.0,508.0,508.0,516.0,516.0,516.0,516.0,516.0,516.0,516.0,516.0,516.0,516.0,516.0,516.0,507.0,512.0,508.0,511.0,520.0,516.0
0,5.0,12.0,13.0,510.76666666666665,511.9,513.5666666666667,500,500,500,511.0,511.0,511.0,511.0,511.0,511.0,511.0,511.0,511.0,511.0,511.0,511.0,511.0,512.0,512.0,512.0,512.0,512.0,512.0,512.0,512.0,512.0,512.0,512.0,512.0,512.0,512.0,512.0,512.0,512.0,512.0,512.0,512.0,508.0,508.0,508.0,508.0,508.0,508.0,508.0,516.0,516.0,516.0,516.0,516.0,516.0,516.0,516.0,516.0,516.0,516.0,516.0,516.0,503.0,503.0,503.0,503.0,503.0,503.0,503.0,511.0,508.0,503.0,512.0,512.0,516.0
0,4.0,6.0,13.0,511.5,509.3333333333333,506.03333333333336,500,500,500,512.0,512.0,512.0,512.0,512.0,512.0,512.0,512.0,512.0,512.0,512.0,512.0,512.0,512.0,512.0,508.0,508.0,508.0,508.0,508.0,508.0,508.0,508.0,508.0,508.0,508.0,508.0,508.0,508.0,508.0,508.0,508.0,508.0,508.0,508.0,514.0,514.0,514.0,514.0,514.0,503.0,503.0,503.0,503.0,503.0,503.0,503.0,503.0,503.0,503.0,503.0,503.0,503.0,503.0,503.0,503.0,503.0,503.0,503.0,503.0,508.0,508.0,503.0,512.0,514.0,503.0
0,7.0,6.0,7.0,508.8333333333333,512.4,503.23333333333335,500,500,500,508.0,508.0,508.0,508.0,508.0,508.0,508.0,508.0,508.0,508.0,508.0,508.0,508.0,508.0,508.0,508.0,508.0,508.0,505.0,505.0,514.0,514.0,514.0,514.0,514.0,514.0,514.0,514.0,514.0,514.0,514.0,514.0,514.0,514.0,514.0,514.0,514.0,514.0,508.0,508.0,503.0,503.0,503.0,503.0,503.0,503.0,503.0,503.0,503.0,503.0,503.0,503.0,503.0,503.0,503.0,503.0,503.0,503.0,510.0,510.0,505.0,508.0,503.0,508.0,514.0,510.0
0,3.0,6.0,7.0,506.3,510.6,506.96666666666664,500,500,500,508.0,508.0,508.0,505.0,505.0,505.0,505.0,505.0,505.0,505.0,505.0,505.0,505.0,505.0,505.0,505.0,505.0,505.0,505.0,505.0,514.0,514.0,514.0,508.0,508.0,508.0,508.0,508.0,508.0,508.0,508.0,508.0,508.0,508.0,508.0,508.0,508.0,508.0,508.0,508.0,503.0,503.0,503.0,510.0,510.0,510.0,510.0,510.0,510.0,510.0,510.0,510.0,510.0,510.0,510.0,510.0,510.0,510.0,510.0,510.0,505.0,508.0,503.0,508.0,514.0,510.0
0,6.0,4.0,1.0,504.6,508.26666666666665,509.93333333333334,500,500,500,505.0,505.0,505.0,505.0,505.0,505.0,505.0,505.0,505.0,505.0,505.0,505.0,505.0,505.0,505.0,505.0,505.0,499.0,499.0,499.0,508.0,508.0,508.0,508.0,508.0,508.0,508.0,508.0,508.0,508.0,508.0,508.0,508.0,508.0,508.0,508.0,508.0,512.0,512.0,512.0,510.0,510.0,510.0,510.0,510.0,510.0,510.0,510.0,510.0,510.0,510.0,510.0,510.0,510.0,510.0,510.0,510.0,509.0,509.0,509.0,499.0,508.0,509.0,505.0,512.0,510.0
0,16.0,32.0,9.0,501.8666666666667,512.6666666666666,508.76666666666665,500,500,500,499.0,499.0,499.0,499.0,499.0,499.0,499.0,499.0,499.0,499.0,499.0,499.0,499.0,499.0,499.0,515.0,515.0,515.0,515.0,515.0,512.0,512.0,512.0,512.0,512.0,512.0,512.0,512.0,512.0,512.0,512.0,512.0,512.0,512.0,512.0,540.0,540.0,540.0,540.0,540.0,509.0,509.0,509.0,509.0,509.0,509.0,509.0,509.0,509.0,509.0,509.0,509.0,509.0,509.0,509.0,501.0,501.0,501.0,501.0,501.0,499.0,512.0,501.0,515.0,540.0,509.0
0,16.0,39.0,8.0,511.93333333333334,543.4666666666667,503.2,500,500,500,515.0,515.0,515.0,515.0,515.0,512.0,512.0,512.0,512.0,512.0,512.0,512.0,512.0,512.0,512.0,509.0,509.0,509.0,509.0,509.0,540.0,540.0,540.0,540.0,540.0,551.0,551.0,551.0,551.0,551.0,551.0,551.0,551.0,551.0,551.0,550.0,550.0,550.0,550.0,550.0,501.0,501.0,501.0,501.0,501.0,503.0,503.0,503.0,503.0,503.0,503.0,503.0,503.0,503.0,503.0,507.0,507.0,507.0,507.0,507.0,509.0,540.0,501.0,515.0,551.0,507.0
0,15.0,30.0,5.0,509.2,548.4,505.73333333333335,500,500,500,509.0,509.0,509.0,509.0,509.0,509.0,509.0,509.0,509.0,509.0,509.0,509.0,509.0,509.0,509.0,509.0,509.0,497.0,497.0,497.0,550.0,550.0,550.0,550.0,550.0,550.0,550.0,550.0,550.0,550.0,550.0,550.0,550.0,550.0,550.0,550.0,550.0,521.0,521.0,521.0,507.0,507.0,507.0,507.0,507.0,507.0,507.0,507.0,507.0,507.0,507.0,507.0,507.0,507.0,507.0,507.0,507.0,508.0,508.0,508.0,497.0,521.0,507.0,509.0,550.0,508.0
0,12.0,29.0,1.0,500.8,529.1333333333333,507.53333333333336,500,500,500,497.0,497.0,497.0,497.0,497.0,497.0,497.0,497.0,497.0,497.0,497.0,497.0,500.0,500.0,500.0,500.0,500.0,500.0,500.0,500.0,521.0,521.0,521.0,521.0,521.0,521.0,521.0,521.0,521.0,521.0,521.0,521.0,523.0,523.0,523.0,523.0,523.0,523.0,523.0,523.0,508.0,508.0,508.0,508.0,508.0,508.0,508.0,508.0,508.0,508.0,508.0,508.0,507.0,507.0,507.0,507.0,507.0,507.0,507.0,507.0,497.0,521.0,507.0,500.0,523.0,508.0
0,23.0,19.0,1.0,502.3666666666667,516.7333333333333,506.93333333333334,500,500,500,501.0,501.0,501.0,501.0,501.0,501.0,501.0,501.0,501.0,501.0,501.0,501.0,501.0,501.0,501.0,501.0,501.0,501.0,523.0,523.0,517.0,517.0,517.0,517.0,517.0,517.0,517.0,517.0,517.0,517.0,517.0,517.0,517.0,517.0,517.0,517.0,517.0,517.0,504.0,504.0,507.0,507.0,507.0,507.0,507.0,507.0,507.0,507.0,507.0,507.0,507.0,507.0,507.0,507.0,507.0,507.0,507.0,507.0,506.0,506.0,501.0,504.0,506.0,523.0,517.0,507.0
0,24.0,13.0,3.0,515.4666666666667,507.8333333333333,506.53333333333336,500,500,500,523.0,523.0,523.0,523.0,523.0,523.0,523.0,523.0,523.0,523.0,523.0,523.0,523.0,523.0,523.0,523.0,499.0,499.0,499.0,499.0,504.0,504.0,504.0,504.0,504.0,504.0,504.0,504.0,504.0,504.0,504.0,504.0,504.0,504.0,504.0,504.0,512.0,512.0,512.0,512.0,506.0,506.0,506.0,506.0,506.0,506.0,506.0,506.0,506.0,506.0,506.0,506.0,506.0,506.0,506.0,506.0,509.0,509.0,509.0,509.0,499.0,504.0,506.0,523.0,512.0,509.0
0,16.0,28.0,8.0,508.06666666666666,527.8666666666667,504.46666666666664,500,500,500,499.0,499.0,499.0,515.0,515.0,515.0,515.0,515.0,515.0,515.0,515.0,515.0,515.0,515.0,515.0,515.0,515.0,515.0,515.0,515.0,512.0,512.0,512.0,540.0,540.0,540.0,540.0,540.0,540.0,540.0,540.0,540.0,540.0,540.0,540.0,540.0,540.0,540.0,540.0,540.0,509.0,509.0,509.0,501.0,501.0,501.0,501.0,501.0,501.0,501.0,501.0,501.0,501.0,501.0,501.0,501.0,501.0,501.0,501.0,501.0,499.0,512.0,501.0,515.0,540.0,509.0
0,6.0,11.0,6.0,513.8,543.6,501.93333333333334,500,500,500,515.0,515.0,515.0,515.0,515.0,515.0,515.0,515.0,515.0,512.0,512.0,512.0,512.0,512.0,512.0,512.0,509.0,509.0,509.0,509.0,540.0,540.0,540.0,540.0,540.0,540.0,540.0,540.0,540.0,551.0,551.0,551.0,551.0,551.0,551.0,551.0,550.0,550.0,550.0,550.0,501.0,501.0,501.0,501.0,501.0,501.0,501.0,501.0,501.0,503.0,503.0,503.0,503.0,503.0,503.0,503.0,507.0,507.0,507.0,507.0,509.0,540.0,501.0,515.0,551.0,507.0
0,18.0,30.0,7.0,507.4,544.4666666666667,506.1333333333333,500,500,500,509.0,509.0,509.0,509.0,509.0,509.0,509.0,509.0,509.0,509.0,509.0,497.0,497.0,497.0,497.0,497.0,497.0,497.0,497.0,497.0,550.0,550.0,550.0,550.0,550.0,550.0,550.0,550.0,550.0,550.0,550.0,521.0,521.0,521.0,521.0,521.0,521.0,521.0,521.0,521.0,507.0,507.0,507.0,507.0,507.0,507.0,507.0,507.0,507.0,507.0,507.0,508.0,508.0,508.0,508.0,508.0,508.0,508.0,508.0,508.0,497.0,521.0,507.0,509.0,550.0,508.0
0,3.0,2.0,1.0,498.8,522.2,507.4,500,500,500,497.0,500.0,500.0,500.0,500.0,500.0,500.0,500.0,500.0,500.0,500.0,500.0,500.0,500.0,500.0,500.0,500.0,500.0,500.0,500.0,521.0,523.0,523.0,523.0,523.0,523.0,523.0,523.0,523.0,523.0,523.0,523.0,523.0,523.0,523.0,523.0,523.0,523.0,523.0,523.0,508.0,507.0,507.0,507.0,507.0,507.0,507.0,507.0,507.0,507.0,507.0,507.0,507.0,507.0,507.0,507.0,507.0,507.0,507.0,507.0,497.0,521.0,507.0,500.0,523.0,508.0
0,3.0,9.0,7.0,500.6,520.0,506.53333333333336,500,500,500,500.0,500.0,500.0,500.0,500.0,501.0,501.0,501.0,501.0,501.0,501.0,501.0,501.0,501.0,501.0,501.0,503.0,503.0,503.0,503.0,523.0,523.0,523.0,523.0,523.0,517.0,517.0,517.0,517.0,517.0,517.0,517.0,517.0,517.0,517.0,517.0,514.0,514.0,514.0,514.0,507.0,507.0,507.0,507.0,507.0,507.0,507.0,507.0,507.0,507.0,507.0,507.0,507.0,507.0,507.0,507.0,500.0,500.0,500.0,500.0,500.0,514.0,500.0,503.0,523.0,507.0
0,2.0,20.0,7.0,502.73333333333335,508.1666666666667,502.03333333333336,500,500,500,503.0,503.0,503.0,503.0,503.0,503.0,503.0,503.0,503.0,503.0,503.0,503.0,503.0,503.0,503.0,503.0,503.0,503.0,503.0,503.0,514.0,514.0,514.0,514.0,514.0,514.0,514.0,514.0,514.0,497.0,497.0,497.0,497.0,497.0,497.0,497.0,497.0,497.0,497.0,497.0,500.0,500.0,500.0,500.0,500.0,500.0,500.0,500.0,500.0,503.0,503.0,503.0,503.0,503.0,503.0,503.0,503.0,503.0,503.0,503.0,503.0,497.0,500.0,503.0,514.0,503.0
0,3.0,25.0,7.0,503.7,496.93333333333334,503.93333333333334,500,500,500,503.0,503.0,503.0,503.0,503.0,503.0,503.0,503.0,503.0,503.0,503.0,503.0,503.0,506.0,506.0,506.0,506.0,506.0,506.0,506.0,497.0,497.0,497.0,497.0,497.0,497.0,497.0,497.0,497.0,497.0,498.0,498.0,498.0,489.0,489.0,489.0,489.0,489.0,489.0,489.0,503.0,503.0,503.0,503.0,503.0,503.0,503.0,503.0,503.0,503.0,506.0,506.0,506.0,507.0,507.0,507.0,507.0,507.0,507.0,507.0,503.0,489.0,503.0,506.0,498.0,507.0
0,2.0,37.0,6.0,505.8666666666667,485.6,507.4,500,500,500,506.0,506.0,506.0,506.0,506.0,506.0,506.0,506.0,506.0,506.0,506.0,506.0,506.0,506.0,506.0,506.0,506.0,506.0,504.0,504.0,489.0,489.0,489.0,489.0,478.0,478.0,478.0,478.0,478.0,478.0,478.0,478.0,478.0,478.0,478.0,478.0,478.0,478.0,515.0,515.0,507.0,507.0,507.0,507.0,507.0,507.0,507.0,507.0,507.0,507.0,507.0,507.0,507.0,507.0,507.0,507.0,507.0,507.0,513.0,513.0,504.0,478.0,507.0,506.0,515.0,513.0
0,3.0,5.0,1.0,504.9,516.5,513.3333333333334,500,500,500,504.0,504.0,504.0,504.0,504.0,504.0,504.0,504.0,504.0,507.0,507.0,507.0,507.0,507.0,507.0,507.0,507.0,507.0,507.0,507.0,515.0,515.0,515.0,515.0,515.0,515.0,515.0,515.0,515.0,520.0,520.0,520.0,520.0,520.0,520.0,520.0,520.0,520.0,520.0,520.0,513.0,513.0,513.0,513.0,513.0,513.0,513.0,513.0,513.0,514.0,514.0,514.0,514.0,514.0,514.0,514.0,514.0,514.0,514.0,514.0,504.0,515.0,513.0,507.0,520.0,514.0
0,2.0,17.0,4.0,507.8,513.2,512.4,500,500,500,507.0,507.0,507.0,507.0,507.0,507.0,507.0,509.0,509.0,509.0,509.0,509.0,509.0,509.0,509.0,509.0,509.0,509.0,509.0,509.0,520.0,520.0,520.0,520.0,520.0,520.0,520.0,503.0,503.0,503.0,503.0,503.0,503.0,503.0,503.0,503.0,503.0,503.0,503.0,503.0,514.0,514.0,514.0,514.0,514.0,514.0,510.0,510.0,510.0,510.0,510.0,510.0,510.0,510.0,510.0,510.0,510.0,510.0,510.0,510.0,507.0,503.0,510.0,509.0,520.0,514.0
0,2.0,8.0,13.0,508.6,507.1,510.7,500,500,500,508.0,508.0,508.0,508.0,508.0,508.0,508.0,509.0,509.0,509.0,509.0,509.0,509.0,509.0,507.0,507.0,507.0,507.0,507.0,507.0,507.0,507.0,507.0,507.0,507.0,507.0,511.0,511.0,511.0,511.0,511.0,511.0,511.0,511.0,506.0,506.0,506.0,506.0,506.0,506.0,509.0,509.0,509.0,509.0,509.0,509.0,514.0,514.0,514.0,514.0,514.0,514.0,514.0,514.0,501.0,501.0,501.0,501.0,501.0,501.0,507.0,506.0,501.0,509.0,511.0,514.0
0,2.0,7.0,12.0,507.4,504.6,503.4,500,500,500,507.0,507.0,507.0,507.0,507.0,507.0,507.0,507.0,507.0,507.0,507.0,507.0,507.0,507.0,509.0,509.0,509.0,509.0,509.0,509.0,506.0,506.0,506.0,506.0,506.0,506.0,506.0,506.0,506.0,506.0,506.0,506.0,506.0,506.0,499.0,499.0,499.0,499.0,499.0,499.0,501.0,501.0,501.0,501.0,501.0,501.0,501.0,501.0,501.0,501.0,501.0,501.0,501.0,501.0,513.0,513.0,513.0,513.0,513.0,513.0,507.0,499.0,501.0,509.0,506.0,513.0
0,4.0,9.0,13.0,509.6333333333333,499.1333333333333,512.2,500,500,500,509.0,509.0,509.0,509.0,509.0,511.0,511.0,511.0,511.0,511.0,511.0,510.0,510.0,510.0,510.0,510.0,510.0,510.0,510.0,510.0,499.0,499.0,499.0,499.0,499.0,497.0,497.0,497.0,497.0,497.0,497.0,500.0,500.0,500.0,500.0,500.0,500.0,500.0,500.0,500.0,513.0,513.0,513.0,513.0,513.0,514.0,514.0,514.0,514.0,514.0,514.0,511.0,511.0,511.0,511.0,511.0,511.0,511.0,511.0,511.0,509.0,497.0,511.0,511.0,500.0,514.0
0,4.0,14.0,1.0,508.8333333333333,505.6,510.53333333333336,500,500,500,510.0,510.0,510.0,510.0,510.0,510.0,509.0,509.0,509.0,509.0,509.0,509.0,509.0,506.0,506.0,506.0,506.0,506.0,506.0,506.0,500.0,500.0,500.0,500.0,500.0,500.0,510.0,510.0,510.0,510.0,510.0,510.0,510.0,514.0,514.0,514.0,514.0,514.0,514.0,514.0,511.0,511.0,511.0,511.0,511.0,511.0,510.0,510.0,510.0,510.0,510.0,510.0,510.0,510.0,510.0,510.0,510.0,510.0,510.0,510.0,506.0,500.0,510.0,510.0,514.0,511.0
0,4.0,28.0,5.0,507.23333333333335,513.5333333333333,509.46666666666664,500,500,500,509.0,506.0,506.0,506.0,506.0,506.0,506.0,506.0,506.0,506.0,506.0,506.0,506.0,506.0,506.0,506.0,506.0,506.0,504.0,504.0,510.0,514.0,514.0,514.0,514.0,514.0,514.0,514.0,514.0,514.0,514.0,514.0,514.0,528.0,528.0,528.0,528.0,528.0,542.0,542.0,510.0,510.0,510.0,510.0,510.0,510.0,510.0,510.0,510.0,510.0,510.0,510.0,510.0,506.0,506.0,506.0,506.0,506.0,509.0,509.0,506.0,510.0,506.0,509.0,528.0,510.0
0,2.0,35.0,4.0,505.06666666666666,534.0666666666667,508.6,500,500,500,506.0,506.0,504.0,504.0,504.0,504.0,504.0,504.0,504.0,504.0,504.0,504.0,504.0,504.0,504.0,504.0,506.0,506.0,506.0,506.0,528.0,528.0,542.0,542.0,542.0,542.0,542.0,542.0,542.0,542.0,542.0,542.0,542.0,542.0,542.0,542.0,549.0,549.0,549.0,549.0,506.0,506.0,509.0,509.0,509.0,509.0,509.0,509.0,509.0,509.0,509.0,509.0,509.0,509.0,509.0,509.0,508.0,508.0,508.0,508.0,504.0,528.0,506.0,506.0,549.0,509.0
0,15.0,7.0,3.0,509.3333333333333,547.7333333333333,507.53333333333336,500,500,500,506.0,506.0,506.0,506.0,506.0,506.0,506.0,506.0,506.0,506.0,519.0,519.0,519.0,519.0,519.0,519.0,519.0,519.0,519.0,519.0,549.0,549.0,549.0,549.0,549.0,549.0,549.0,549.0,549.0,549.0,546.0,546.0,546.0,546.0,546.0,546.0,546.0,546.0,546.0,546.0,508.0,508.0,508.0,508.0,508.0,508.0,508.0,508.0,508.0,508.0,506.0,506.0,506.0,506.0,506.0,506.0,506.0,506.0,506.0,506.0,506.0,546.0,506.0,519.0,549.0,508.0
0,22.0,23.0,7.0,516.5666666666667,536.3333333333334,503.93333333333334,500,500,500,519.0,519.0,519.0,519.0,519.0,498.0,498.0,498.0,498.0,520.0,520.0,520.0,520.0,520.0,520.0,520.0,520.0,520.0,520.0,520.0,546.0,546.0,546.0,546.0,546.0,523.0,523.0,523.0,528.0,528.0,528.0,528.0,528.0,528.0,528.0,528.0,528.0,528.0,528.0,528.0,506.0,506.0,506.0,506.0,506.0,507.0,507.0,507.0,500.0,500.0,500.0,500.0,500.0,500.0,500.0,500.0,500.0,500.0,500.0,500.0,498.0,523.0,500.0,520.0,546.0,507.0
0,22.0,36.0,7.0,515.6333333333333,519.2666666666667,501.26666666666665,500,500,500,520.0,520.0,520.0,520.0,520.0,520.0,520.0,501.0,501.0,501.0,501.0,501.0,518.0,518.0,518.0,518.0,518.0,518.0,518.0,518.0,528.0,528.0,528.0,528.0,528.0,528.0,528.0,492.0,492.0,492.0,492.0,492.0,517.0,517.0,517.0,517.0,517.0,517.0,517.0,517.0,500.0,500.0,500.0,500.0,500.0,500.0,500.0,502.0,502.0,502.0,502.0,502.0,503.0,503.0,503.0,503.0,503.0,503.0,503.0,503.0,501.0,492.0,500.0,520.0,528.0,503.0
0,19.0,36.0,3.0,515.3,513.5666666666667,502.6333333333333,500,500,500,518.0,518.0,518.0,518.0,518.0,518.0,518.0,518.0,518.0,518.0,518.0,518.0,518.0,518.0,518.0,518.0,518.0,519.0,519.0,519.0,517.0,517.0,517.0,517.0,517.0,517.0,517.0,517.0,517.0,517.0,517.0,517.0,517.0,517.0,517.0,517.0,517.0,512.0,512.0,512.0,503.0,503.0,503.0,503.0,503.0,503.0,503.0,503.0,503.0,503.0,503.0,503.0,503.0,503.0,503.0,503.0,503.0,505.0,505.0,505.0,518.0,517.0,503.0,519.0,517.0,505.0
0,1.0,5.0,2.0,518.6,514.0,504.2,500,500,500,518.0,518.0,519.0,519.0,519.0,519.0,519.0,519.0,519.0,519.0,519.0,519.0,519.0,519.0,519.0,519.0,519.0,519.0,519.0,519.0,517.0,517.0,512.0,512.0,512.0,512.0,512.0,512.0,512.0,512.0,512.0,512.0,512.0,512.0,512.0,512.0,512.0,512.0,512.0,512.0,503.0,503.0,505.0,505.0,505.0,505.0,505.0,505.0,505.0,505.0,505.0,505.0,505.0,505.0,505.0,505.0,505.0,505.0,505.0,505.0,518.0,512.0,503.0,519.0,517.0,505.0
0,12.0,25.0,5.0,519.0666666666667,497.2,505.06666666666666,500,500,500,522.0,522.0,522.0,522.0,522.0,522.0,522.0,522.0,522.0,522.0,522.0,522.0,522.0,522.0,510.0,510.0,510.0,510.0,510.0,510.0,498.0,498.0,498.0,498.0,498.0,498.0,498.0,498.0,498.0,498.0,498.0,498.0,498.0,498.0,482.0,482.0,482.0,482.0,482.0,482.0,503.0,503.0,503.0,503.0,503.0,503.0,503.0,503.0,503.0,503.0,503.0,503.0,503.0,503.0,508.0,508.0,508.0,508.0,508.0,508.0,510.0,482.0,503.0,522.0,498.0,508.0
0,12.0,28.0,9.0,511.6,494.6666666666667,508.06666666666666,500,500,500,510.0,510.0,510.0,510.0,510.0,510.0,510.0,510.0,510.0,510.0,510.0,510.0,510.0,510.0,510.0,510.0,510.0,510.0,510.0,510.0,482.0,482.0,482.0,482.0,482.0,482.0,482.0,510.0,510.0,510.0,510.0,510.0,510.0,510.0,510.0,510.0,510.0,494.0,494.0,494.0,508.0,508.0,508.0,508.0,508.0,508.0,508.0,509.0,509.0,509.0,509.0,509.0,509.0,509.0,509.0,509.0,509.0,512.0,512.0,512.0,510.0,482.0,508.0,510.0,510.0,512.0
0,4.0,16.0,3.0,508.0,495.0,512.0,500,500,500,510.0,510.0,510.0,510.0,506.0,506.0,506.0,506.0,506.0,506.0,506.0,506.0,506.0,506.0,506.0,506.0,506.0,506.0,506.0,506.0,494.0,494.0,494.0,494.0,496.0,496.0,496.0,496.0,496.0,496.0,496.0,496.0,496.0,496.0,496.0,496.0,496.0,496.0,496.0,496.0,512.0,512.0,512.0,512.0,512.0,512.0,512.0,512.0,512.0,512.0,512.0,512.0,512.0,512.0,512.0,512.0,512.0,512.0,512.0,512.0,506.0,494.0,512.0,510.0,496.0,512.0
0,1.0,16.0,5.0,506.46666666666664,498.93333333333334,508.8666666666667,500,500,500,506.0,506.0,506.0,506.0,506.0,507.0,507.0,507.0,507.0,507.0,507.0,507.0,507.0,507.0,507.0,507.0,507.0,507.0,507.0,507.0,508.0,508.0,508.0,508.0,508.0,492.0,492.0,492.0,492.0,492.0,492.0,492.0,492.0,492.0,492.0,492.0,492.0,492.0,492.0,492.0,510.0,510.0,510.0,510.0,510.0,507.0,507.0,507.0,507.0,507.0,507.0,507.0,507.0,507.0,507.0,507.0,507.0,507.0,507.0,507.0,506.0,492.0,507.0,507.0,508.0,510.0
0,2.0,21.0,7.0,506.8333333333333,492.73333333333335,506.3,500,500,500,507.0,507.0,507.0,507.0,507.0,507.0,507.0,507.0,507.0,507.0,507.0,507.0,507.0,507.0,507.0,507.0,507.0,507.0,507.0,505.0,492.0,492.0,492.0,492.0,492.0,492.0,492.0,492.0,492.0,492.0,492.0,492.0,487.0,487.0,487.0,487.0,487.0,487.0,487.0,501.0,507.0,507.0,507.0,507.0,507.0,507.0,507.0,507.0,507.0,507.0,507.0,507.0,503.0,503.0,503.0,503.0,503.0,503.0,503.0,505.0,505.0,487.0,503.0,507.0,501.0,507.0
0,3.0,14.0,5.0,506.1,494.4,505.3,500,500,500,507.0,507.0,507.0,507.0,507.0,505.0,505.0,505.0,505.0,505.0,505.0,505.0,505.0,505.0,505.0,505.0,505.0,504.0,504.0,504.0,487.0,487.0,487.0,487.0,487.0,501.0,501.0,501.0,501.0,501.0,501.0,501.0,501.0,501.0,501.0,501.0,501.0,491.0,491.0,491.0,503.0,503.0,503.0,503.0,503.0,505.0,505.0,505.0,505.0,505.0,505.0,505.0,505.0,505.0,505.0,505.0,505.0,508.0,508.0,508.0,504.0,487.0,503.0,507.0,501.0,508.0
0,1.0,10.0,3.0,504.1333333333333,492.3333333333333,507.6,500,500,500,504.0,504.0,504.0,504.0,504.0,504.0,504.0,504.0,504.0,504.0,504.0,504.0,504.0,504.0,504.0,504.0,504.0,504.0,504.0,505.0,491.0,491.0,491.0,491.0,491.0,491.0,491.0,491.0,491.0,491.0,491.0,491.0,491.0,491.0,491.0,491.0,491.0,491.0,491.0,513.0,508.0,508.0,508.0,508.0,508.0,508.0,508.0,508.0,508.0,508.0,508.0,508.0,508.0,508.0,508.0,508.0,508.0,508.0,508.0,502.0,504.0,491.0,508.0,504.0,491.0,508.0
0,2.0,22.0,8.0,504.6,503.3333333333333,504.53333333333336,500,500,500,504.0,504.0,504.0,505.0,505.0,505.0,505.0,505.0,505.0,505.0,505.0,505.0,505.0,505.0,505.0,505.0,505.0,505.0,506.0,506.0,491.0,491.0,491.0,513.0,513.0,513.0,513.0,513.0,513.0,513.0,513.0,513.0,513.0,513.0,513.0,513.0,513.0,513.0,509.0,509.0,508.0,508.0,508.0,502.0,502.0,502.0,502.0,502.0,502.0,502.0,502.0,502.0,502.0,502.0,502.0,502.0,502.0,502.0,500.0,500.0,504.0,491.0,500.0,506.0,513.0,508.0
0,1.0,16.0,3.0,505.6333333333333,511.26666666666665,500.8,500,500,500,506.0,506.0,506.0,506.0,506.0,506.0,506.0,506.0,506.0,506.0,506.0,506.0,506.0,506.0,506.0,505.0,505.0,505.0,505.0,505.0,509.0,509.0,509.0,509.0,509.0,509.0,509.0,509.0,509.0,509.0,509.0,509.0,509.0,509.0,509.0,525.0,525.0,525.0,525.0,525.0,500.0,500.0,500.0,500.0,500.0,500.0,500.0,500.0,500.0,500.0,500.0,500.0,500.0,500.0,500.0,503.0,503.0,503.0,503.0,503.0,505.0,509.0,500.0,506.0,525.0,503.0
0,4.0,32.0,5.0,504.8666666666667,522.8666666666667,502.46666666666664,500,500,500,505.0,505.0,505.0,505.0,505.0,505.0,505.0,505.0,505.0,505.0,505.0,505.0,505.0,505.0,505.0,505.0,502.0,502.0,502.0,502.0,525.0,525.0,525.0,525.0,525.0,525.0,525.0,525.0,525.0,525.0,525.0,525.0,525.0,525.0,525.0,525.0,541.0,541.0,541.0,541.0,503.0,503.0,503.0,503.0,503.0,503.0,503.0,503.0,503.0,503.0,503.0,503.0,503.0,503.0,503.0,503.0,505.0,505.0,505.0,505.0,502.0,525.0,503.0,505.0,541.0,505.0
0,1.0,9.0,0.0,502.3666666666667,544.3,505.0,500,500,500,502.0,502.0,502.0,502.0,502.0,502.0,502.0,502.0,502.0,503.0,503.0,503.0,503.0,503.0,503.0,503.0,503.0,503.0,503.0,503.0,541.0,541.0,541.0,541.0,541.0,541.0,541.0,541.0,541.0,550.0,550.0,550.0,550.0,550.0,550.0,550.0,550.0,550.0,550.0,550.0,505.0,505.0,505.0,505.0,505.0,505.0,505.0,505.0,505.0,505.0,505.0,505.0,505.0,505.0,505.0,505.0,505.0,505.0,505.0,505.0,502.0,541.0,505.0,503.0,550.0,505.0
0,2.0,38.0,6.0,504.0,530.6,509.2,500,500,500,505.0,505.0,505.0,505.0,505.0,505.0,505.0,504.0,504.0,504.0,504.0,504.0,504.0,504.0,504.0,504.0,504.0,504.0,504.0,504.0,536.0,536.0,536.0,536.0,536.0,536.0,536.0,512.0,512.0,512.0,512.0,512.0,512.0,512.0,512.0,512.0,512.0,512.0,512.0,512.0,511.0,511.0,511.0,511.0,511.0,511.0,511.0,511.0,511.0,511.0,511.0,511.0,511.0,511.0,511.0,511.0,511.0,511.0,511.0,511.0,504.0,512.0,511.0,505.0,536.0,511.0
0,3.0,32.0,7.0,504.96666666666664,518.9333333333333,510.1666666666667,500,500,500,504.0,504.0,504.0,504.0,504.0,504.0,504.0,504.0,504.0,504.0,504.0,504.0,507.0,507.0,507.0,507.0,507.0,507.0,507.0,507.0,512.0,512.0,512.0,512.0,512.0,512.0,512.0,512.0,512.0,512.0,512.0,512.0,516.0,516.0,516.0,516.0,516.0,504.0,504.0,504.0,511.0,511.0,511.0,511.0,511.0,511.0,511.0,511.0,511.0,511.0,511.0,511.0,508.0,508.0,508.0,508.0,508.0,504.0,504.0,504.0,504.0,504.0,504.0,507.0,516.0,511.0
0,1.0,16.0,0.0,507.43333333333334,497.06666666666666,504.0,500,500,500,507.0,507.0,507.0,507.0,507.0,507.0,508.0,508.0,508.0,508.0,508.0,508.0,508.0,508.0,508.0,508.0,508.0,508.0,508.0,508.0,504.0,504.0,504.0,504.0,504.0,504.0,488.0,488.0,488.0,488.0,488.0,488.0,488.0,488.0,488.0,488.0,488.0,488.0,488.0,488.0,504.0,504.0,504.0,504.0,504.0,504.0,504.0,504.0,504.0,504.0,504.0,504.0,504.0,504.0,504.0,504.0,504.0,504.0,504.0,504.0,507.0,488.0,504.0,508.0,504.0,504.0
0,18.0,26.0,12.0,510.8333333333333,492.1666666666667,499.1666666666667,500,500,500,508.0,508.0,508.0,508.0,508.0,508.0,508.0,508.0,508.0,508.0,508.0,508.0,508.0,508.0,508.0,525.0,525.0,525.0,525.0,525.0,488.0,488.0,488.0,488.0,488.0,505.0,505.0,505.0,505.0,505.0,505.0,505.0,505.0,505.0,505.0,479.0,479.0,479.0,479.0,479.0,504.0,504.0,504.0,504.0,504.0,492.0,492.0,492.0,492.0,492.0,492.0,492.0,492.0,492.0,492.0,499.0,499.0,499.0,499.0,499.0,508.0,479.0,492.0,525.0,505.0,504.0
0,21.0,26.0,15.0,517.8666666666667,490.03333333333336,501.0,500,500,500,525.0,525.0,525.0,525.0,525.0,525.0,525.0,529.0,529.0,511.0,511.0,511.0,511.0,511.0,511.0,511.0,511.0,511.0,511.0,511.0,479.0,479.0,479.0,479.0,479.0,479.0,479.0,499.0,499.0,496.0,496.0,496.0,496.0,496.0,496.0,496.0,496.0,496.0,496.0,496.0,499.0,499.0,499.0,499.0,499.0,499.0,499.0,499.0,499.0,507.0,507.0,507.0,507.0,507.0,507.0,507.0,507.0,507.0,507.0,507.0,511.0,479.0,499.0,529.0,499.0,507.0
0,18.0,38.0,9.0,514.6666666666666,499.1333333333333,506.3666666666667,500,500,500,511.0,511.0,511.0,511.0,511.0,511.0,511.0,511.0,511.0,511.0,511.0,511.0,511.0,511.0,523.0,523.0,523.0,523.0,523.0,523.0,496.0,496.0,496.0,496.0,496.0,496.0,496.0,496.0,496.0,496.0,496.0,496.0,496.0,517.0,517.0,517.0,517.0,517.0,517.0,517.0,507.0,507.0,507.0,507.0,507.0,507.0,507.0,507.0,507.0,507.0,507.0,507.0,507.0,508.0,508.0,508.0,508.0,508.0,508.0,508.0,511.0,496.0,507.0,523.0,517.0,508.0
0,12.0,21.0,1.0,519.4,510.7,507.7,500,500,500,523.0,523.0,523.0,523.0,523.0,523.0,523.0,523.0,523.0,523.0,523.0,523.0,523.0,523.0,523.0,523.0,523.0,523.0,523.0,526.0,517.0,517.0,517.0,517.0,517.0,517.0,517.0,517.0,517.0,517.0,517.0,517.0,517.0,517.0,517.0,517.0,517.0,517.0,517.0,523.0,508.0,508.0,508.0,508.0,508.0,508.0,508.0,508.0,508.0,508.0,508.0,508.0,508.0,508.0,508.0,508.0,508.0,508.0,508.0,504.0,523.0,517.0,508.0,523.0,517.0,508.0
0,7.0,14.0,4.0,522.6666666666666,516.3333333333334,505.93333333333334,500,500,500,526.0,526.0,526.0,526.0,526.0,526.0,526.0,519.0,519.0,519.0,519.0,519.0,519.0,519.0,519.0,519.0,519.0,519.0,519.0,519.0,523.0,523.0,523.0,523.0,523.0,523.0,523.0,509.0,509.0,509.0,509.0,509.0,509.0,509.0,509.0,509.0,509.0,509.0,509.0,509.0,504.0,504.0,504.0,504.0,504.0,504.0,504.0,506.0,506.0,506.0,506.0,506.0,506.0,506.0,506.0,506.0,506.0,506.0,506.0,506.0,519.0,509.0,504.0,526.0,523.0,506.0
0,3.0,10.0,6.0,520.7,511.9,502.4,500,500,500,522.0,522.0,522.0,522.0,522.0,522.0,522.0,522.0,522.0,522.0,522.0,522.0,522.0,522.0,520.0,520.0,520.0,520.0,520.0,520.0,516.0,516.0,516.0,516.0,516.0,516.0,516.0,516.0,516.0,516.0,516.0,516.0,516.0,516.0,506.0,506.0,506.0,506.0,506.0,506.0,500.0,500.0,500.0,500.0,500.0,500.0,500.0,500.0,500.0,500.0,500.0,500.0,500.0,503.0,503.0,503.0,503.0,503.0,503.0,503.0,520.0,506.0,500.0,522.0,516.0,503.0
0,5.0,6.0,2.0,517.5,509.0,502.0,500,500,500,520.0,520.0,520.0,520.0,520.0,515.0,515.0,515.0,515.0,515.0,515.0,515.0,515.0,515.0,515.0,515.0,515.0,515.0,515.0,515.0,506.0,506.0,506.0,506.0,506.0,512.0,512.0,512.0,512.0,512.0,512.0,512.0,512.0,512.0,512.0,512.0,512.0,512.0,512.0,512.0,503.0,503.0,503.0,503.0,503.0,501.0,501.0,501.0,501.0,501.0,501.0,501.0,501.0,501.0,501.0,501.0,501.0,501.0,501.0,501.0,515.0,506.0,501.0,520.0,512.0,503.0
0,11.0,17.0,3.0,506.46666666666664,498.46666666666664,501.6,500,500,500,505.0,505.0,505.0,505.0,505.0,505.0,505.0,505.0,505.0,505.0,505.0,505.0,505.0,504.0,504.0,504.0,504.0,504.0,504.0,504.0,496.0,496.0,496.0,496.0,496.0,496.0,496.0,496.0,496.0,496.0,496.0,496.0,496.0,495.0,495.0,495.0,495.0,495.0,495.0,495.0,501.0,501.0,501.0,501.0,501.0,501.0,501.0,501.0,501.0,501.0,501.0,501.0,501.0,504.0,504.0,504.0,504.0,504.0,504.0,504.0,504.0,495.0,501.0,505.0,496.0,504.0
0,2.0,5.0,6.0,504.8666666666667,492.8333333333333,506.6,500,500,500,504.0,504.0,504.0,504.0,504.0,504.0,504.0,506.0,506.0,506.0,506.0,506.0,506.0,506.0,506.0,506.0,506.0,506.0,506.0,506.0,495.0,495.0,495.0,495.0,495.0,495.0,495.0,490.0,490.0,490.0,490.0,490.0,490.0,490.0,490.0,490.0,490.0,490.0,490.0,490.0,504.0,504.0,504.0,504.0,504.0,504.0,504.0,510.0,510.0,510.0,510.0,510.0,510.0,510.0,510.0,510.0,510.0,510.0,510.0,510.0,504.0,490.0,504.0,506.0,495.0,510.0
0,6.0,21.0,1.0,503.5,496.56666666666666,510.56666666666666,500,500,500,506.0,506.0,506.0,503.0,503.0,503.0,503.0,503.0,503.0,503.0,503.0,500.0,500.0,500.0,500.0,500.0,500.0,500.0,500.0,500.0,490.0,490.0,490.0,511.0,511.0,511.0,511.0,511.0,511.0,511.0,511.0,491.0,491.0,491.0,491.0,491.0,491.0,491.0,491.0,491.0,510.0,510.0,510.0,511.0,511.0,511.0,511.0,511.0,511.0,511.0,511.0,511.0,511.0,511.0,511.0,511.0,511.0,511.0,511.0,511.0,500.0,490.0,510.0,506.0,511.0,511.0
0,3.0,26.0,3.0,498.7,502.26666666666665,512.3,500,500,500,500.0,500.0,500.0,500.0,500.0,500.0,500.0,497.0,497.0,497.0,497.0,497.0,497.0,497.0,497.0,497.0,497.0,497.0,497.0,497.0,491.0,491.0,491.0,491.0,491.0,491.0,491.0,517.0,517.0,517.0,517.0,517.0,517.0,517.0,517.0,517.0,517.0,517.0,517.0,517.0,511.0,511.0,511.0,511.0,511.0,511.0,511.0,514.0,514.0,514.0,514.0,514.0,514.0,514.0,514.0,514.0,514.0,514.0,514.0,514.0,497.0,491.0,511.0,500.0,517.0,514.0
0,2.0,5.0,6.0,498.1333333333333,519.4666666666667,511.6,500,500,500,497.0,499.0,499.0,499.0,499.0,499.0,499.0,499.0,499.0,499.0,499.0,499.0,499.0,499.0,499.0,499.0,499.0,499.0,499.0,499.0,522.0,522.0,522.0,522.0,522.0,521.0,521.0,521.0,521.0,521.0,521.0,521.0,521.0,521.0,521.0,521.0,521.0,521.0,521.0,521.0,513.0,513.0,513.0,513.0,513.0,508.0,508.0,508.0,508.0,508.0,508.0,508.0,508.0,508.0,508.0,508.0,508.0,508.0,508.0,508.0,497.0,517.0,508.0,499.0,522.0,514.0
0,3.0,10.0,4.0,501.0,513.0,504.6,500,500,500,501.0,501.0,501.0,501.0,501.0,501.0,501.0,501.0,501.0,501.0,501.0,501.0,501.0,501.0,502.0,502.0,502.0,502.0,502.0,502.0,511.0,511.0,511.0,511.0,511.0,511.0,511.0,511.0,511.0,511.0,511.0,511.0,511.0,511.0,516.0,516.0,516.0,516.0,516.0,516.0,504.0,504.0,504.0,504.0,504.0,504.0,504.0,504.0,504.0,504.0,504.0,504.0,504.0,504.0,505.0,505.0,505.0,505.0,505.0,505.0,501.0,511.0,504.0,502.0,516.0,505.0
0,3.0,10.0,3.0,502.1333333333333,515.8333333333334,505.1333333333333,500,500,500,502.0,502.0,502.0,502.0,502.0,502.0,502.0,502.0,502.0,502.0,502.0,502.0,502.0,502.0,504.0,504.0,504.0,504.0,504.0,504.0,516.0,516.0,516.0,516.0,516.0,516.0,516.0,516.0,516.0,516.0,516.0,516.0,516.0,516.0,521.0,521.0,521.0,521.0,521.0,521.0,505.0,505.0,505.0,505.0,505.0,505.0,505.0,505.0,505.0,505.0,505.0,505.0,505.0,505.0,507.0,507.0,507.0,507.0,507.0,507.0,502.0,516.0,505.0,504.0,521.0,507.0
0,2.0,30.0,4.0,503.4,516.5,506.0,500,500,500,504.0,504.0,504.0,504.0,504.0,504.0,504.0,504.0,504.0,504.0,504.0,504.0,504.0,504.0,504.0,504.0,504.0,504.0,504.0,504.0,521.0,521.0,521.0,521.0,521.0,521.0,521.0,521.0,521.0,521.0,521.0,521.0,521.0,521.0,521.0,521.0,521.0,491.0,491.0,491.0,507.0,507.0,507.0,507.0,507.0,507.0,507.0,507.0,507.0,507.0,507.0,507.0,507.0,507.0,507.0,507.0,507.0,503.0,503.0,503.0,504.0,491.0,503.0,504.0,521.0,507.0
0,3.0,30.0,5.0,504.4,502.26666666666665,504.3333333333333,500,500,500,504.0,504.0,504.0,504.0,504.0,504.0,504.0,504.0,504.0,504.0,504.0,504.0,504.0,504.0,504.0,504.0,507.0,507.0,507.0,507.0,521.0,491.0,491.0,491.0,491.0,491.0,491.0,491.0,491.0,491.0,491.0,491.0,491.0,491.0,491.0,491.0,493.0,493.0,493.0,493.0,507.0,503.0,503.0,503.0,503.0,503.0,503.0,503.0,503.0,503.0,503.0,503.0,503.0,503.0,503.0,503.0,502.0,502.0,502.0,502.0,504.0,491.0,502.0,507.0,521.0,507.0
0,6.0,5.0,5.0,507.5,493.6,503.43333333333334,500,500,500,507.0,507.0,507.0,507.0,507.0,507.0,507.0,507.0,507.0,507.0,510.0,510.0,510.0,510.0,510.0,510.0,510.0,510.0,510.0,510.0,493.0,493.0,493.0,493.0,493.0,493.0,493.0,493.0,493.0,493.0,496.0,496.0,496.0,496.0,496.0,496.0,496.0,496.0,496.0,496.0,502.0,502.0,502.0,502.0,502.0,502.0,502.0,502.0,502.0,502.0,507.0,507.0,507.0,507.0,507.0,507.0,507.0,507.0,507.0,507.0,507.0,493.0,502.0,510.0,496.0,507.0
0,8.0,11.0,7.0,510.1,493.1333333333333,506.0,500,500,500,510.0,510.0,510.0,510.0,510.0,510.0,510.0,510.0,510.0,510.0,513.0,513.0,513.0,513.0,515.0,515.0,515.0,515.0,515.0,515.0,496.0,496.0,496.0,496.0,496.0,496.0,496.0,496.0,496.0,496.0,485.0,485.0,485.0,485.0,490.0,490.0,490.0,490.0,490.0,490.0,507.0,507.0,507.0,507.0,507.0,507.0,507.0,507.0,507.0,507.0,508.0,508.0,508.0,509.0,509.0,509.0,509.0,509.0,509.0,509.0,510.0,485.0,507.0,515.0,496.0,509.0
0,2.0,7.0,5.0,514.7333333333333,490.23333333333335,509.76666666666665,500,500,500,515.0,515.0,515.0,515.0,515.0,515.0,515.0,515.0,515.0,515.0,515.0,515.0,515.0,515.0,514.0,514.0,514.0,514.0,514.0,514.0,490.0,490.0,490.0,490.0,490.0,490.0,490.0,490.0,490.0,490.0,490.0,490.0,490.0,490.0,492.0,492.0,492.0,492.0,492.0,492.0,509.0,509.0,509.0,509.0,509.0,509.0,509.0,509.0,509.0,509.0,509.0,509.0,509.0,509.0,513.0,513.0,513.0,513.0,513.0,513.0,514.0,490.0,509.0,515.0,492.0,513.0
0,3.0,27.0,8.0,513.7333333333333,496.73333333333335,513.2666666666667,500,500,500,514.0,514.0,514.0,514.0,514.0,514.0,514.0,514.0,514.0,514.0,514.0,514.0,512.0,512.0,512.0,512.0,512.0,512.0,512.0,512.0,492.0,492.0,492.0,492.0,492.0,492.0,492.0,492.0,492.0,492.0,492.0,492.0,517.0,517.0,517.0,517.0,517.0,517.0,517.0,517.0,513.0,513.0,513.0,513.0,513.0,513.0,513.0,513.0,513.0,513.0,513.0,513.0,517.0,517.0,517.0,517.0,517.0,517.0,517.0,517.0,512.0,492.0,513.0,514.0,517.0,517.0
0,2.0,25.0,5.0,512.5333333333333,510.0,516.0,500,500,500,512.0,512.0,512.0,512.0,512.0,512.0,512.0,512.0,512.0,512.0,512.0,512.0,512.0,512.0,512.0,512.0,512.0,512.0,512.0,512.0,517.0,517.0,517.0,517.0,517.0,517.0,517.0,517.0,517.0,517.0,517.0,517.0,517.0,517.0,517.0,517.0,517.0,517.0,512.0,512.0,517.0,517.0,517.0,517.0,517.0,517.0,517.0,517.0,517.0,517.0,517.0,517.0,517.0,517.0,517.0,517.0,517.0,517.0,518.0,518.0,512.0,512.0,517.0,512.0,517.0,518.0
0,0.0,5.0,1.0,512.0,513.8333333333334,517.6333333333333,500,500,500,512.0,512.0,512.0,512.0,512.0,512.0,512.0,512.0,512.0,512.0,512.0,512.0,512.0,512.0,512.0,512.0,512.0,514.0,514.0,514.0,517.0,512.0,512.0,512.0,512.0,512.0,512.0,512.0,512.0,512.0,512.0,512.0,512.0,512.0,512.0,512.0,512.0,514.0,514.0,514.0,517.0,518.0,518.0,518.0,518.0,518.0,518.0,518.0,518.0,518.0,518.0,518.0,518.0,518.0,518.0,518.0,518.0,517.0,517.0,517.0,512.0,512.0,517.0,512.0,517.0,518.0
