,emg_ampl_0,emg_ampl_1,emg_ampl_2,emg_max_0,emg_max_1,emg_max_2,emg_med_0,emg_med_1,emg_med_2,emg_0,emg_1,emg_2,emg_min_0,emg_min_1,emg_min_2,emg_prev_0_0,emg_prev_0_1,emg_prev_0_2,emg_prev_0_3,emg_prev_0_4,emg_prev_0_5,emg_prev_0_6,emg_prev_0_7,emg_prev_0_8,emg_prev_0_9,emg_prev_0_10,emg_prev_0_11,emg_prev_0_12,emg_prev_0_13,emg_prev_0_14,emg_prev_0_15,emg_prev_0_16,emg_prev_0_17,emg_prev_0_18,emg_prev_0_19,emg_prev_1_0,emg_prev_1_1,emg_prev_1_2,emg_prev_1_3,emg_prev_1_4,emg_prev_1_5,emg_prev_1_6,emg_prev_1_7,emg_prev_1_8,emg_prev_1_9,emg_prev_1_10,emg_prev_1_11,emg_prev_1_12,emg_prev_1_13,emg_prev_1_14,emg_prev_1_15,emg_prev_1_16,emg_prev_1_17,emg_prev_1_18,emg_prev_1_19,emg_prev_2_0,emg_prev_2_1,emg_prev_2_2,emg_prev_2_3,emg_prev_2_4,emg_prev_2_5,emg_prev_2_6,emg_prev_2_7,emg_prev_2_8,emg_prev_2_9,emg_prev_2_10,emg_prev_2_11,emg_prev_2_12,emg_prev_2_13,emg_prev_2_14,emg_prev_2_15,emg_prev_2_16,emg_prev_2_17,emg_prev_2_18,emg_prev_2_19
0,0.0,0.0,0.0,0.0,0.0,0.0,0.0,0.0,0.0,0.0,0.0,0.0,0.0,0.0,0.0,0.0,0.0,0.0,0.0,0.0,0.0,0.0,0.0,0.0,0.0,0.0,0.0,0.0,0.0,0.0,0.0,0.0,0.0,0.0,0.0,0.0,0.0,0.0,0.0,0.0,0.0,0.0,0.0,0.0,0.0,0.0,0.0,0.0,0.0,0.0,0.0,0.0,0.0,0.0,0.0,0.0,0.0,0.0,0.0,0.0,0.0,0.0,0.0,0.0,0.0,0.0,0.0,0.0,0.0,0.0,0.0,0.0,0.0,0.0,0.0
0,17.0,133.0,67.0,513.0,611.0,511.0,507.26666666666665,514.7666666666667,501.03333333333336,506.0,532.0,510.0,498.0,488.0,468.0,507.0,507.0,501.0,504.0,504.0,501.0,498.0,500.0,504.0,504.0,506.0,510.0,510.0,512.0,513.0,512.0,509.0,506.0,510.0,506.0,511.0,510.0,521.0,527.0,488.0,488.0,510.0,516.0,534.0,545.0,611.0,559.0,526.0,529.0,529.0,504.0,505.0,500.0,534.0,532.0,511.0,502.0,468.0,504.0,504.0,499.0,499.0,503.0,489.0,469.0,474.0,485.0,494.0,492.0,498.0,502.0,503.0,495.0,500.0,510.0
0,17.0,133.0,67.0,513.0,611.0,511.0,507.03333333333336,516.4666666666667,501.43333333333334,503.0,541.0,511.0,498.0,488.0,468.0,507.0,501.0,504.0,504.0,501.0,498.0,500.0,504.0,504.0,506.0,510.0,510.0,512.0,513.0,512.0,509.0,506.0,510.0,506.0,503.0,510.0,521.0,527.0,488.0,488.0,510.0,516.0,534.0,545.0,611.0,559.0,526.0,529.0,529.0,504.0,505.0,500.0,534.0,532.0,541.0,502.0,468.0,504.0,504.0,499.0,499.0,503.0,489.0,469.0,474.0,485.0,494.0,492.0,498.0,502.0,503.0,495.0,500.0,510.0,511.0
0,17.0,128.0,67.0,513.0,611.0,511.0,506.8,518.4,501.7,504.0,536.0,503.0,498.0,488.0,468.0,501.0,504.0,504.0,501.0,498.0,500.0,504.0,504.0,506.0,510.0,510.0,512.0,513.0,512.0,509.0,506.0,510.0,506.0,503.0,504.0,521.0,527.0,488.0,488.0,510.0,516.0,534.0,545.0,611.0,559.0,526.0,529.0,529.0,504.0,505.0,500.0,534.0,532.0,541.0,536.0,468.0,504.0,504.0,499.0,499.0,503.0,489.0,469.0,474.0,485.0,494.0,492.0,498.0,502.0,503.0,495.0,500.0,510.0,511.0,503.0
0,17.0,128.0,67.0,513.0,611.0,511.0,506.8333333333333,518.7,501.8666666666667,505.0,504.0,503.0,498.0,488.0,469.0,504.0,504.0,501.0,498.0,500.0,504.0,504.0,506.0,510.0,510.0,512.0,513.0,512.0,509.0,506.0,510.0,506.0,503.0,504.0,505.0,527.0,488.0,488.0,510.0,516.0,534.0,545.0,611.0,559.0,526.0,529.0,529.0,504.0,505.0,500.0,534.0,532.0,541.0,536.0,504.0,504.0,504.0,499.0,499.0,503.0,489.0,469.0,474.0,485.0,494.0,492.0,498.0,502.0,503.0,495.0,500.0,510.0,511.0,503.0,503.0
0,17.0,128.0,67.0,513.0,611.0,511.0,506.73333333333335,518.9666666666667,501.56666666666666,504.0,498.0,503.0,498.0,488.0,469.0,504.0,501.0,498.0,500.0,504.0,504.0,506.0,510.0,510.0,512.0,513.0,512.0,509.0,506.0,510.0,506.0,503.0,504.0,505.0,504.0,488.0,488.0,510.0,516.0,534.0,545.0,611.0,559.0,526.0,529.0,529.0,504.0,505.0,500.0,534.0,532.0,541.0,536.0,504.0,498.0,504.0,499.0,499.0,503.0,489.0,469.0,474.0,485.0,494.0,492.0,498.0,502.0,503.0,495.0,500.0,510.0,511.0,503.0,503.0,503.0
0,17.0,136.0,67.0,513.0,611.0,511.0,506.6,518.6666666666666,500.93333333333334,505.0,475.0,507.0,498.0,475.0,469.0,501.0,498.0,500.0,504.0,504.0,506.0,510.0,510.0,512.0,513.0,512.0,509.0,506.0,510.0,506.0,503.0,504.0,505.0,504.0,505.0,488.0,510.0,516.0,534.0,545.0,611.0,559.0,526.0,529.0,529.0,504.0,505.0,500.0,534.0,532.0,541.0,536.0,504.0,498.0,475.0,499.0,499.0,503.0,489.0,469.0,474.0,485.0,494.0,492.0,498.0,502.0,503.0,495.0,500.0,510.0,511.0,503.0,503.0,503.0,507.0
0,15.0,136.0,65.0,513.0,611.0,511.0,506.43333333333334,519.6333333333333,499.6333333333333,510.0,512.0,496.0,498.0,475.0,469.0,498.0,500.0,504.0,504.0,506.0,510.0,510.0,512.0,513.0,512.0,509.0,506.0,510.0,506.0,503.0,504.0,505.0,504.0,505.0,510.0,510.0,516.0,534.0,545.0,611.0,559.0,526.0,529.0,529.0,504.0,505.0,500.0,534.0,532.0,541.0,536.0,504.0,498.0,475.0,512.0,499.0,503.0,489.0,469.0,474.0,485.0,494.0,492.0,498.0,502.0,503.0,495.0,500.0,510.0,511.0,503.0,503.0,503.0,507.0,496.0
0,17.0,136.0,53.0,515.0,611.0,511.0,506.53333333333336,521.0666666666667,498.6666666666667,515.0,544.0,504.0,500.0,475.0,469.0,500.0,504.0,504.0,506.0,510.0,510.0,512.0,513.0,512.0,509.0,506.0,510.0,506.0,503.0,504.0,505.0,504.0,505.0,510.0,515.0,516.0,534.0,545.0,611.0,559.0,526.0,529.0,529.0,504.0,505.0,500.0,534.0,532.0,541.0,536.0,504.0,498.0,475.0,512.0,544.0,503.0,489.0,469.0,474.0,485.0,494.0,492.0,498.0,502.0,503.0,495.0,500.0,510.0,511.0,503.0,503.0,503.0,507.0,496.0,504.0
0,17.0,136.0,43.0,515.0,611.0,511.0,506.56666666666666,521.6666666666666,497.76666666666665,511.0,523.0,494.0,503.0,475.0,469.0,504.0,504.0,506.0,510.0,510.0,512.0,513.0,512.0,509.0,506.0,510.0,506.0,503.0,504.0,505.0,504.0,505.0,510.0,515.0,511.0,534.0,545.0,611.0,559.0,526.0,529.0,529.0,504.0,505.0,500.0,534.0,532.0,541.0,536.0,504.0,498.0,475.0,512.0,544.0,523.0,489.0,469.0,474.0,485.0,494.0,492.0,498.0,502.0,503.0,495.0,500.0,510.0,511.0,503.0,503.0,503.0,507.0,496.0,504.0,494.0
0,17.0,136.0,43.0,515.0,611.0,511.0,506.6,521.8333333333334,497.7,510.0,521.0,504.0,503.0,475.0,469.0,504.0,506.0,510.0,510.0,512.0,513.0,512.0,509.0,506.0,510.0,506.0,503.0,504.0,505.0,504.0,505.0,510.0,515.0,511.0,510.0,545.0,611.0,559.0,526.0,529.0,529.0,504.0,505.0,500.0,534.0,532.0,541.0,536.0,504.0,498.0,475.0,512.0,544.0,523.0,521.0,469.0,474.0,485.0,494.0,492.0,498.0,502.0,503.0,495.0,500.0,510.0,511.0,503.0,503.0,503.0,507.0,496.0,504.0,494.0,504.0
0,17.0,136.0,43.0,515.0,611.0,511.0,506.6333333333333,520.7333333333333,497.3666666666667,508.0,489.0,495.0,503.0,475.0,474.0,506.0,510.0,510.0,512.0,513.0,512.0,509.0,506.0,510.0,506.0,503.0,504.0,505.0,504.0,505.0,510.0,515.0,511.0,510.0,508.0,611.0,559.0,526.0,529.0,529.0,504.0,505.0,500.0,534.0,532.0,541.0,536.0,504.0,498.0,475.0,512.0,544.0,523.0,521.0,489.0,474.0,485.0,494.0,492.0,498.0,502.0,503.0,495.0,500.0,510.0,511.0,503.0,503.0,503.0,507.0,496.0,504.0,494.0,504.0,495.0
0,17.0,136.0,43.0,515.0,559.0,511.0,506.6666666666667,520.2333333333333,496.93333333333334,508.0,496.0,498.0,503.0,475.0,485.0,510.0,510.0,512.0,513.0,512.0,509.0,506.0,510.0,506.0,503.0,504.0,505.0,504.0,505.0,510.0,515.0,511.0,510.0,508.0,508.0,559.0,526.0,529.0,529.0,504.0,505.0,500.0,534.0,532.0,541.0,536.0,504.0,498.0,475.0,512.0,544.0,523.0,521.0,489.0,496.0,485.0,494.0,492.0,498.0,502.0,503.0,495.0,500.0,510.0,511.0,503.0,503.0,503.0,507.0,496.0,504.0,494.0,504.0,495.0,498.0
0,17.0,136.0,59.0,515.0,544.0,527.0,506.8333333333333,521.1666666666666,497.76666666666665,512.0,538.0,527.0,503.0,475.0,492.0,510.0,512.0,513.0,512.0,509.0,506.0,510.0,506.0,503.0,504.0,505.0,504.0,505.0,510.0,515.0,511.0,510.0,508.0,508.0,512.0,526.0,529.0,529.0,504.0,505.0,500.0,534.0,532.0,541.0,536.0,504.0,498.0,475.0,512.0,544.0,523.0,521.0,489.0,496.0,538.0,494.0,492.0,498.0,502.0,503.0,495.0,500.0,510.0,511.0,503.0,503.0,503.0,507.0,496.0,504.0,494.0,504.0,495.0,498.0,527.0
0,17.0,136.0,58.0,515.0,544.0,527.0,507.1666666666667,520.8333333333334,499.73333333333335,511.0,511.0,527.0,503.0,475.0,492.0,512.0,513.0,512.0,509.0,506.0,510.0,506.0,503.0,504.0,505.0,504.0,505.0,510.0,515.0,511.0,510.0,508.0,508.0,512.0,511.0,529.0,529.0,504.0,505.0,500.0,534.0,532.0,541.0,536.0,504.0,498.0,475.0,512.0,544.0,523.0,521.0,489.0,496.0,538.0,511.0,492.0,498.0,502.0,503.0,495.0,500.0,510.0,511.0,503.0,503.0,503.0,507.0,496.0,504.0,494.0,504.0,495.0,498.0,527.0,527.0
0,17.0,136.0,63.0,515.0,544.0,532.0,507.4,520.0666666666667,500.6666666666667,511.0,504.0,532.0,503.0,475.0,494.0,513.0,512.0,509.0,506.0,510.0,506.0,503.0,504.0,505.0,504.0,505.0,510.0,515.0,511.0,510.0,508.0,508.0,512.0,511.0,511.0,529.0,504.0,505.0,500.0,534.0,532.0,541.0,536.0,504.0,498.0,475.0,512.0,544.0,523.0,521.0,489.0,496.0,538.0,511.0,504.0,498.0,502.0,503.0,495.0,500.0,510.0,511.0,503.0,503.0,503.0,507.0,496.0,504.0,494.0,504.0,495.0,498.0,527.0,527.0,532.0
0,17.0,138.0,63.0,515.0,544.0,532.0,507.56666666666666,519.5666666666667,500.8,509.0,473.0,508.0,503.0,473.0,494.0,512.0,509.0,506.0,510.0,506.0,503.0,504.0,505.0,504.0,505.0,510.0,515.0,511.0,510.0,508.0,508.0,512.0,511.0,511.0,509.0,504.0,505.0,500.0,534.0,532.0,541.0,536.0,504.0,498.0,475.0,512.0,544.0,523.0,521.0,489.0,496.0,538.0,511.0,504.0,473.0,502.0,503.0,495.0,500.0,510.0,511.0,503.0,503.0,503.0,507.0,496.0,504.0,494.0,504.0,495.0,498.0,527.0,527.0,532.0,508.0
0,17.0,138.0,63.0,515.0,544.0,532.0,507.7,519.4,501.06666666666666,505.0,483.0,507.0,503.0,473.0,494.0,509.0,506.0,510.0,506.0,503.0,504.0,505.0,504.0,505.0,510.0,515.0,511.0,510.0,508.0,508.0,512.0,511.0,511.0,509.0,505.0,505.0,500.0,534.0,532.0,541.0,536.0,504.0,498.0,475.0,512.0,544.0,523.0,521.0,489.0,496.0,538.0,511.0,504.0,473.0,483.0,503.0,495.0,500.0,510.0,511.0,503.0,503.0,503.0,507.0,496.0,504.0,494.0,504.0,495.0,498.0,527.0,527.0,532.0,508.0,507.0
0,15.0,138.0,63.0,515.0,544.0,532.0,508.0,519.1666666666666,501.5,507.0,503.0,512.0,503.0,473.0,494.0,506.0,510.0,506.0,503.0,504.0,505.0,504.0,505.0,510.0,515.0,511.0,510.0,508.0,508.0,512.0,511.0,511.0,509.0,505.0,507.0,500.0,534.0,532.0,541.0,536.0,504.0,498.0,475.0,512.0,544.0,523.0,521.0,489.0,496.0,538.0,511.0,504.0,473.0,483.0,503.0,495.0,500.0,510.0,511.0,503.0,503.0,503.0,507.0,496.0,504.0,494.0,504.0,495.0,498.0,527.0,527.0,532.0,508.0,507.0,512.0
0,12.0,138.0,63.0,515.0,544.0,532.0,508.4,519.1333333333333,501.76666666666665,512.0,515.0,511.0,503.0,473.0,494.0,510.0,506.0,503.0,504.0,505.0,504.0,505.0,510.0,515.0,511.0,510.0,508.0,508.0,512.0,511.0,511.0,509.0,505.0,507.0,512.0,534.0,532.0,541.0,536.0,504.0,498.0,475.0,512.0,544.0,523.0,521.0,489.0,496.0,538.0,511.0,504.0,473.0,483.0,503.0,515.0,500.0,510.0,511.0,503.0,503.0,503.0,507.0,496.0,504.0,494.0,504.0,495.0,498.0,527.0,527.0,532.0,508.0,507.0,512.0,511.0
0,12.0,138.0,63.0,515.0,545.0,532.0,508.7,519.5,502.3,513.0,545.0,505.0,503.0,473.0,494.0,506.0,503.0,504.0,505.0,504.0,505.0,510.0,515.0,511.0,510.0,508.0,508.0,512.0,511.0,511.0,509.0,505.0,507.0,512.0,513.0,532.0,541.0,536.0,504.0,498.0,475.0,512.0,544.0,523.0,521.0,489.0,496.0,538.0,511.0,504.0,473.0,483.0,503.0,515.0,545.0,510.0,511.0,503.0,503.0,503.0,507.0,496.0,504.0,494.0,504.0,495.0,498.0,527.0,527.0,532.0,508.0,507.0,512.0,511.0,505.0
0,12.0,138.0,58.0,515.0,545.0,532.0,508.73333333333335,518.3666666666667,502.96666666666664,505.0,511.0,489.0,503.0,473.0,489.0,503.0,504.0,505.0,504.0,505.0,510.0,515.0,511.0,510.0,508.0,508.0,512.0,511.0,511.0,509.0,505.0,507.0,512.0,513.0,505.0,541.0,536.0,504.0,498.0,475.0,512.0,544.0,523.0,521.0,489.0,496.0,538.0,511.0,504.0,473.0,483.0,503.0,515.0,545.0,511.0,511.0,503.0,503.0,503.0,507.0,496.0,504.0,494.0,504.0,495.0,498.0,527.0,527.0,532.0,508.0,507.0,512.0,511.0,505.0,489.0
0,12.0,86.0,47.0,515.0,545.0,532.0,508.8,515.1,503.76666666666665,508.0,513.0,498.0,504.0,473.0,489.0,504.0,505.0,504.0,505.0,510.0,515.0,511.0,510.0,508.0,508.0,512.0,511.0,511.0,509.0,505.0,507.0,512.0,513.0,505.0,508.0,536.0,504.0,498.0,475.0,512.0,544.0,523.0,521.0,489.0,496.0,538.0,511.0,504.0,473.0,483.0,503.0,515.0,545.0,511.0,513.0,503.0,503.0,503.0,507.0,496.0,504.0,494.0,504.0,495.0,498.0,527.0,527.0,532.0,508.0,507.0,512.0,511.0,505.0,489.0,498.0
0,16.0,72.0,43.0,515.0,545.0,532.0,508.43333333333334,513.6333333333333,504.1333333333333,499.0,515.0,496.0,499.0,473.0,489.0,505.0,504.0,505.0,510.0,515.0,511.0,510.0,508.0,508.0,512.0,511.0,511.0,509.0,505.0,507.0,512.0,513.0,505.0,508.0,499.0,504.0,498.0,475.0,512.0,544.0,523.0,521.0,489.0,496.0,538.0,511.0,504.0,473.0,483.0,503.0,515.0,545.0,511.0,513.0,515.0,503.0,503.0,507.0,496.0,504.0,494.0,504.0,495.0,498.0,527.0,527.0,532.0,508.0,507.0,512.0,511.0,505.0,489.0,498.0,496.0
0,17.0,78.0,59.0,515.0,551.0,532.0,508.03333333333336,514.4666666666667,503.43333333333334,498.0,551.0,473.0,498.0,473.0,473.0,504.0,505.0,510.0,515.0,511.0,510.0,508.0,508.0,512.0,511.0,511.0,509.0,505.0,507.0,512.0,513.0,505.0,508.0,499.0,498.0,498.0,475.0,512.0,544.0,523.0,521.0,489.0,496.0,538.0,511.0,504.0,473.0,483.0,503.0,515.0,545.0,511.0,513.0,515.0,551.0,503.0,507.0,496.0,504.0,494.0,504.0,495.0,498.0,527.0,527.0,532.0,508.0,507.0,512.0,511.0,505.0,489.0,498.0,496.0,473.0
0,17.0,78.0,59.0,515.0,551.0,532.0,507.56666666666666,515.1333333333333,503.2,498.0,549.0,485.0,498.0,473.0,473.0,505.0,510.0,515.0,511.0,510.0,508.0,508.0,512.0,511.0,511.0,509.0,505.0,507.0,512.0,513.0,505.0,508.0,499.0,498.0,498.0,475.0,512.0,544.0,523.0,521.0,489.0,496.0,538.0,511.0,504.0,473.0,483.0,503.0,515.0,545.0,511.0,513.0,515.0,551.0,549.0,507.0,496.0,504.0,494.0,504.0,495.0,498.0,527.0,527.0,532.0,508.0,507.0,512.0,511.0,505.0,489.0,498.0,496.0,473.0,485.0
0,17.0,78.0,59.0,515.0,551.0,532.0,507.43333333333334,514.0333333333333,503.96666666666664,509.0,496.0,521.0,498.0,473.0,473.0,510.0,515.0,511.0,510.0,508.0,508.0,512.0,511.0,511.0,509.0,505.0,507.0,512.0,513.0,505.0,508.0,499.0,498.0,498.0,509.0,512.0,544.0,523.0,521.0,489.0,496.0,538.0,511.0,504.0,473.0,483.0,503.0,515.0,545.0,511.0,513.0,515.0,551.0,549.0,496.0,496.0,504.0,494.0,504.0,495.0,498.0,527.0,527.0,532.0,508.0,507.0,512.0,511.0,505.0,489.0,498.0,496.0,473.0,485.0,521.0
0,17.0,90.0,59.0,515.0,551.0,532.0,507.3333333333333,512.6,504.3666666666667,509.0,461.0,514.0,498.0,461.0,473.0,515.0,511.0,510.0,508.0,508.0,512.0,511.0,511.0,509.0,505.0,507.0,512.0,513.0,505.0,508.0,499.0,498.0,498.0,509.0,509.0,544.0,523.0,521.0,489.0,496.0,538.0,511.0,504.0,473.0,483.0,503.0,515.0,545.0,511.0,513.0,515.0,551.0,549.0,496.0,461.0,504.0,494.0,504.0,495.0,498.0,527.0,527.0,532.0,508.0,507.0,512.0,511.0,505.0,489.0,498.0,496.0,473.0,485.0,521.0,514.0
0,17.0,90.0,59.0,513.0,551.0,532.0,507.26666666666665,512.2666666666667,504.6,507.0,495.0,510.0,498.0,461.0,473.0,511.0,510.0,508.0,508.0,512.0,511.0,511.0,509.0,505.0,507.0,512.0,513.0,505.0,508.0,499.0,498.0,498.0,509.0,509.0,507.0,523.0,521.0,489.0,496.0,538.0,511.0,504.0,473.0,483.0,503.0,515.0,545.0,511.0,513.0,515.0,551.0,549.0,496.0,461.0,495.0,494.0,504.0,495.0,498.0,527.0,527.0,532.0,508.0,507.0,512.0,511.0,505.0,489.0,498.0,496.0,473.0,485.0,521.0,514.0,510.0
0,17.0,90.0,59.0,513.0,551.0,532.0,507.5,513.4666666666667,505.3666666666667,513.0,536.0,518.0,498.0,461.0,473.0,510.0,508.0,508.0,512.0,511.0,511.0,509.0,505.0,507.0,512.0,513.0,505.0,508.0,499.0,498.0,498.0,509.0,509.0,507.0,513.0,521.0,489.0,496.0,538.0,511.0,504.0,473.0,483.0,503.0,515.0,545.0,511.0,513.0,515.0,551.0,549.0,496.0,461.0,495.0,536.0,504.0,495.0,498.0,527.0,527.0,532.0,508.0,507.0,512.0,511.0,505.0,489.0,498.0,496.0,473.0,485.0,521.0,514.0,510.0,518.0
0,17.0,90.0,59.0,515.0,551.0,532.0,507.6666666666667,513.0333333333333,505.43333333333334,515.0,521.0,502.0,498.0,461.0,473.0,508.0,508.0,512.0,511.0,511.0,509.0,505.0,507.0,512.0,513.0,505.0,508.0,499.0,498.0,498.0,509.0,509.0,507.0,513.0,515.0,489.0,496.0,538.0,511.0,504.0,473.0,483.0,503.0,515.0,545.0,511.0,513.0,515.0,551.0,549.0,496.0,461.0,495.0,536.0,521.0,495.0,498.0,527.0,527.0,532.0,508.0,507.0,512.0,511.0,505.0,489.0,498.0,496.0,473.0,485.0,521.0,514.0,510.0,518.0,502.0
0,17.0,90.0,59.0,515.0,551.0,532.0,507.8666666666667,511.8,505.1666666666667,512.0,495.0,502.0,498.0,461.0,473.0,508.0,512.0,511.0,511.0,509.0,505.0,507.0,512.0,513.0,505.0,508.0,499.0,498.0,498.0,509.0,509.0,507.0,513.0,515.0,512.0,496.0,538.0,511.0,504.0,473.0,483.0,503.0,515.0,545.0,511.0,513.0,515.0,551.0,549.0,496.0,461.0,495.0,536.0,521.0,495.0,498.0,527.0,527.0,532.0,508.0,507.0,512.0,511.0,505.0,489.0,498.0,496.0,473.0,485.0,521.0,514.0,510.0,518.0,502.0,502.0
0,17.0,90.0,59.0,515.0,551.0,532.0,508.1666666666667,510.06666666666666,504.3666666666667,512.0,489.0,487.0,498.0,461.0,473.0,512.0,511.0,511.0,509.0,505.0,507.0,512.0,513.0,505.0,508.0,499.0,498.0,498.0,509.0,509.0,507.0,513.0,515.0,512.0,512.0,538.0,511.0,504.0,473.0,483.0,503.0,515.0,545.0,511.0,513.0,515.0,551.0,549.0,496.0,461.0,495.0,536.0,521.0,495.0,489.0,527.0,527.0,532.0,508.0,507.0,512.0,511.0,505.0,489.0,498.0,496.0,473.0,485.0,521.0,514.0,510.0,518.0,502.0,502.0,487.0
0,17.0,90.0,59.0,515.0,551.0,532.0,508.3,508.96666666666664,503.8333333333333,508.0,503.0,487.0,498.0,461.0,473.0,511.0,511.0,509.0,505.0,507.0,512.0,513.0,505.0,508.0,499.0,498.0,498.0,509.0,509.0,507.0,513.0,515.0,512.0,512.0,508.0,511.0,504.0,473.0,483.0,503.0,515.0,545.0,511.0,513.0,515.0,551.0,549.0,496.0,461.0,495.0,536.0,521.0,495.0,489.0,503.0,527.0,532.0,508.0,507.0,512.0,511.0,505.0,489.0,498.0,496.0,473.0,485.0,521.0,514.0,510.0,518.0,502.0,502.0,487.0,487.0
0,17.0,90.0,59.0,515.0,551.0,532.0,508.3666666666667,510.2,503.96666666666664,507.0,541.0,507.0,498.0,461.0,473.0,511.0,509.0,505.0,507.0,512.0,513.0,505.0,508.0,499.0,498.0,498.0,509.0,509.0,507.0,513.0,515.0,512.0,512.0,508.0,507.0,504.0,473.0,483.0,503.0,515.0,545.0,511.0,513.0,515.0,551.0,549.0,496.0,461.0,495.0,536.0,521.0,495.0,489.0,503.0,541.0,532.0,508.0,507.0,512.0,511.0,505.0,489.0,498.0,496.0,473.0,485.0,521.0,514.0,510.0,518.0,502.0,502.0,487.0,487.0,507.0
0,17.0,90.0,59.0,515.0,551.0,521.0,508.53333333333336,511.9,504.56666666666666,509.0,549.0,521.0,498.0,461.0,473.0,509.0,505.0,507.0,512.0,513.0,505.0,508.0,499.0,498.0,498.0,509.0,509.0,507.0,513.0,515.0,512.0,512.0,508.0,507.0,509.0,473.0,483.0,503.0,515.0,545.0,511.0,513.0,515.0,551.0,549.0,496.0,461.0,495.0,536.0,521.0,495.0,489.0,503.0,541.0,549.0,508.0,507.0,512.0,511.0,505.0,489.0,498.0,496.0,473.0,485.0,521.0,514.0,510.0,518.0,502.0,502.0,487.0,487.0,507.0,521.0
0,17.0,90.0,59.0,515.0,551.0,526.0,508.7,513.4,505.2,510.0,520.0,526.0,498.0,461.0,473.0,505.0,507.0,512.0,513.0,505.0,508.0,499.0,498.0,498.0,509.0,509.0,507.0,513.0,515.0,512.0,512.0,508.0,507.0,509.0,510.0,483.0,503.0,515.0,545.0,511.0,513.0,515.0,551.0,549.0,496.0,461.0,495.0,536.0,521.0,495.0,489.0,503.0,541.0,549.0,520.0,507.0,512.0,511.0,505.0,489.0,498.0,496.0,473.0,485.0,521.0,514.0,510.0,518.0,502.0,502.0,487.0,487.0,507.0,521.0,526.0
0,17.0,90.0,59.0,515.0,551.0,526.0,508.8,512.3666666666667,505.46666666666664,513.0,481.0,504.0,498.0,461.0,473.0,507.0,512.0,513.0,505.0,508.0,499.0,498.0,498.0,509.0,509.0,507.0,513.0,515.0,512.0,512.0,508.0,507.0,509.0,510.0,513.0,503.0,515.0,545.0,511.0,513.0,515.0,551.0,549.0,496.0,461.0,495.0,536.0,521.0,495.0,489.0,503.0,541.0,549.0,520.0,481.0,512.0,511.0,505.0,489.0,498.0,496.0,473.0,485.0,521.0,514.0,510.0,518.0,502.0,502.0,487.0,487.0,507.0,521.0,526.0,504.0
0,17.0,90.0,59.0,515.0,551.0,526.0,508.56666666666666,510.1,505.6,508.0,476.0,508.0,498.0,461.0,473.0,512.0,513.0,505.0,508.0,499.0,498.0,498.0,509.0,509.0,507.0,513.0,515.0,512.0,512.0,508.0,507.0,509.0,510.0,513.0,508.0,515.0,545.0,511.0,513.0,515.0,551.0,549.0,496.0,461.0,495.0,536.0,521.0,495.0,489.0,503.0,541.0,549.0,520.0,481.0,476.0,511.0,505.0,489.0,498.0,496.0,473.0,485.0,521.0,514.0,510.0,518.0,502.0,502.0,487.0,487.0,507.0,521.0,526.0,504.0,508.0
0,17.0,90.0,59.0,515.0,551.0,526.0,508.6333333333333,509.2,506.1333333333333,513.0,496.0,510.0,498.0,461.0,473.0,513.0,505.0,508.0,499.0,498.0,498.0,509.0,509.0,507.0,513.0,515.0,512.0,512.0,508.0,507.0,509.0,510.0,513.0,508.0,513.0,545.0,511.0,513.0,515.0,551.0,549.0,496.0,461.0,495.0,536.0,521.0,495.0,489.0,503.0,541.0,549.0,520.0,481.0,476.0,496.0,505.0,489.0,498.0,496.0,473.0,485.0,521.0,514.0,510.0,518.0,502.0,502.0,487.0,487.0,507.0,521.0,526.0,504.0,508.0,510.0
0,17.0,90.0,59.0,515.0,551.0,526.0,508.76666666666665,509.4,506.4,514.0,527.0,512.0,498.0,461.0,473.0,505.0,508.0,499.0,498.0,498.0,509.0,509.0,507.0,513.0,515.0,512.0,512.0,508.0,507.0,509.0,510.0,513.0,508.0,513.0,514.0,511.0,513.0,515.0,551.0,549.0,496.0,461.0,495.0,536.0,521.0,495.0,489.0,503.0,541.0,549.0,520.0,481.0,476.0,496.0,527.0,489.0,498.0,496.0,473.0,485.0,521.0,514.0,510.0,518.0,502.0,502.0,487.0,487.0,507.0,521.0,526.0,504.0,508.0,510.0,512.0
0,17.0,90.0,59.0,515.0,551.0,526.0,508.8,510.8,505.9,509.0,531.0,480.0,498.0,461.0,473.0,508.0,499.0,498.0,498.0,509.0,509.0,507.0,513.0,515.0,512.0,512.0,508.0,507.0,509.0,510.0,513.0,508.0,513.0,514.0,509.0,513.0,515.0,551.0,549.0,496.0,461.0,495.0,536.0,521.0,495.0,489.0,503.0,541.0,549.0,520.0,481.0,476.0,496.0,527.0,531.0,498.0,496.0,473.0,485.0,521.0,514.0,510.0,518.0,502.0,502.0,487.0,487.0,507.0,521.0,526.0,504.0,508.0,510.0,512.0,480.0
0,17.0,90.0,59.0,515.0,551.0,526.0,508.6333333333333,511.73333333333335,506.26666666666665,503.0,524.0,509.0,498.0,461.0,473.0,499.0,498.0,498.0,509.0,509.0,507.0,513.0,515.0,512.0,512.0,508.0,507.0,509.0,510.0,513.0,508.0,513.0,514.0,509.0,503.0,515.0,551.0,549.0,496.0,461.0,495.0,536.0,521.0,495.0,489.0,503.0,541.0,549.0,520.0,481.0,476.0,496.0,527.0,531.0,524.0,496.0,473.0,485.0,521.0,514.0,510.0,518.0,502.0,502.0,487.0,487.0,507.0,521.0,526.0,504.0,508.0,510.0,512.0,480.0,509.0
0,17.0,90.0,59.0,515.0,551.0,526.0,508.5,510.23333333333335,505.26666666666665,508.0,493.0,497.0,498.0,461.0,473.0,498.0,498.0,509.0,509.0,507.0,513.0,515.0,512.0,512.0,508.0,507.0,509.0,510.0,513.0,508.0,513.0,514.0,509.0,503.0,508.0,551.0,549.0,496.0,461.0,495.0,536.0,521.0,495.0,489.0,503.0,541.0,549.0,520.0,481.0,476.0,496.0,527.0,531.0,524.0,493.0,473.0,485.0,521.0,514.0,510.0,518.0,502.0,502.0,487.0,487.0,507.0,521.0,526.0,504.0,508.0,510.0,512.0,480.0,509.0,497.0
0,17.0,90.0,59.0,515.0,549.0,526.0,508.5,511.1,504.6333333333333,511.0,537.0,508.0,498.0,461.0,480.0,498.0,509.0,509.0,507.0,513.0,515.0,512.0,512.0,508.0,507.0,509.0,510.0,513.0,508.0,513.0,514.0,509.0,503.0,508.0,511.0,549.0,496.0,461.0,495.0,536.0,521.0,495.0,489.0,503.0,541.0,549.0,520.0,481.0,476.0,496.0,527.0,531.0,524.0,493.0,537.0,485.0,521.0,514.0,510.0,518.0,502.0,502.0,487.0,487.0,507.0,521.0,526.0,504.0,508.0,510.0,512.0,480.0,509.0,497.0,508.0
0,17.0,90.0,53.0,515.0,549.0,526.0,508.3666666666667,511.23333333333335,503.46666666666664,507.0,508.0,497.0,503.0,461.0,480.0,509.0,509.0,507.0,513.0,515.0,512.0,512.0,508.0,507.0,509.0,510.0,513.0,508.0,513.0,514.0,509.0,503.0,508.0,511.0,507.0,496.0,461.0,495.0,536.0,521.0,495.0,489.0,503.0,541.0,549.0,520.0,481.0,476.0,496.0,527.0,531.0,524.0,493.0,537.0,508.0,521.0,514.0,510.0,518.0,502.0,502.0,487.0,487.0,507.0,521.0,526.0,504.0,508.0,510.0,512.0,480.0,509.0,497.0,508.0,497.0
0,17.0,90.0,53.0,515.0,549.0,526.0,508.4,511.8333333333333,503.5,510.0,491.0,509.0,503.0,461.0,480.0,509.0,507.0,513.0,515.0,512.0,512.0,508.0,507.0,509.0,510.0,513.0,508.0,513.0,514.0,509.0,503.0,508.0,511.0,507.0,510.0,461.0,495.0,536.0,521.0,495.0,489.0,503.0,541.0,549.0,520.0,481.0,476.0,496.0,527.0,531.0,524.0,493.0,537.0,508.0,491.0,514.0,510.0,518.0,502.0,502.0,487.0,487.0,507.0,521.0,526.0,504.0,508.0,510.0,512.0,480.0,509.0,497.0,508.0,497.0,509.0
0,24.0,93.0,53.0,515.0,554.0,526.0,507.93333333333334,514.2,503.73333333333335,491.0,554.0,514.0,491.0,476.0,480.0,507.0,513.0,515.0,512.0,512.0,508.0,507.0,509.0,510.0,513.0,508.0,513.0,514.0,509.0,503.0,508.0,511.0,507.0,510.0,491.0,495.0,536.0,521.0,495.0,489.0,503.0,541.0,549.0,520.0,481.0,476.0,496.0,527.0,531.0,524.0,493.0,537.0,508.0,491.0,554.0,510.0,518.0,502.0,502.0,487.0,487.0,507.0,521.0,526.0,504.0,508.0,510.0,512.0,480.0,509.0,497.0,508.0,497.0,509.0,514.0
0,24.0,109.0,60.0,515.0,570.0,533.0,507.6666666666667,516.4333333333333,504.43333333333334,499.0,570.0,533.0,491.0,476.0,480.0,513.0,515.0,512.0,512.0,508.0,507.0,509.0,510.0,513.0,508.0,513.0,514.0,509.0,503.0,508.0,511.0,507.0,510.0,491.0,499.0,536.0,521.0,495.0,489.0,503.0,541.0,549.0,520.0,481.0,476.0,496.0,527.0,531.0,524.0,493.0,537.0,508.0,491.0,554.0,570.0,518.0,502.0,502.0,487.0,487.0,507.0,521.0,526.0,504.0,508.0,510.0,512.0,480.0,509.0,497.0,508.0,497.0,509.0,514.0,533.0
0,24.0,109.0,60.0,515.0,570.0,533.0,507.53333333333336,516.6,504.93333333333334,508.0,520.0,526.0,491.0,476.0,480.0,515.0,512.0,512.0,508.0,507.0,509.0,510.0,513.0,508.0,513.0,514.0,509.0,503.0,508.0,511.0,507.0,510.0,491.0,499.0,508.0,521.0,495.0,489.0,503.0,541.0,549.0,520.0,481.0,476.0,496.0,527.0,531.0,524.0,493.0,537.0,508.0,491.0,554.0,570.0,520.0,502.0,502.0,487.0,487.0,507.0,521.0,526.0,504.0,508.0,510.0,512.0,480.0,509.0,497.0,508.0,497.0,509.0,514.0,533.0,526.0
0,24.0,109.0,60.0,514.0,570.0,533.0,507.23333333333335,515.6666666666666,505.3,504.0,517.0,516.0,491.0,476.0,480.0,512.0,512.0,508.0,507.0,509.0,510.0,513.0,508.0,513.0,514.0,509.0,503.0,508.0,511.0,507.0,510.0,491.0,499.0,508.0,504.0,495.0,489.0,503.0,541.0,549.0,520.0,481.0,476.0,496.0,527.0,531.0,524.0,493.0,537.0,508.0,491.0,554.0,570.0,520.0,517.0,502.0,487.0,487.0,507.0,521.0,526.0,504.0,508.0,510.0,512.0,480.0,509.0,497.0,508.0,497.0,509.0,514.0,533.0,526.0,516.0
0,24.0,109.0,60.0,514.0,570.0,533.0,507.3333333333333,515.7333333333333,506.06666666666666,508.0,513.0,512.0,491.0,476.0,480.0,512.0,508.0,507.0,509.0,510.0,513.0,508.0,513.0,514.0,509.0,503.0,508.0,511.0,507.0,510.0,491.0,499.0,508.0,504.0,508.0,489.0,503.0,541.0,549.0,520.0,481.0,476.0,496.0,527.0,531.0,524.0,493.0,537.0,508.0,491.0,554.0,570.0,520.0,517.0,513.0,487.0,487.0,507.0,521.0,526.0,504.0,508.0,510.0,512.0,480.0,509.0,497.0,508.0,497.0,509.0,514.0,533.0,526.0,516.0,512.0
0,24.0,109.0,60.0,514.0,570.0,533.0,507.26666666666665,515.6,506.5,506.0,509.0,511.0,491.0,476.0,480.0,508.0,507.0,509.0,510.0,513.0,508.0,513.0,514.0,509.0,503.0,508.0,511.0,507.0,510.0,491.0,499.0,508.0,504.0,508.0,506.0,503.0,541.0,549.0,520.0,481.0,476.0,496.0,527.0,531.0,524.0,493.0,537.0,508.0,491.0,554.0,570.0,520.0,517.0,513.0,509.0,487.0,507.0,521.0,526.0,504.0,508.0,510.0,512.0,480.0,509.0,497.0,508.0,497.0,509.0,514.0,533.0,526.0,516.0,512.0,511.0
0,24.0,109.0,60.0,514.0,570.0,533.0,507.6,516.1333333333333,506.93333333333334,509.0,531.0,509.0,491.0,476.0,480.0,507.0,509.0,510.0,513.0,508.0,513.0,514.0,509.0,503.0,508.0,511.0,507.0,510.0,491.0,499.0,508.0,504.0,508.0,506.0,509.0,541.0,549.0,520.0,481.0,476.0,496.0,527.0,531.0,524.0,493.0,537.0,508.0,491.0,554.0,570.0,520.0,517.0,513.0,509.0,531.0,507.0,521.0,526.0,504.0,508.0,510.0,512.0,480.0,509.0,497.0,508.0,497.0,509.0,514.0,533.0,526.0,516.0,512.0,511.0,509.0
0,24.0,109.0,53.0,514.0,570.0,533.0,507.96666666666664,514.9333333333333,507.93333333333334,509.0,515.0,503.0,491.0,476.0,480.0,509.0,510.0,513.0,508.0,513.0,514.0,509.0,503.0,508.0,511.0,507.0,510.0,491.0,499.0,508.0,504.0,508.0,506.0,509.0,509.0,549.0,520.0,481.0,476.0,496.0,527.0,531.0,524.0,493.0,537.0,508.0,491.0,554.0,570.0,520.0,517.0,513.0,509.0,531.0,515.0,521.0,526.0,504.0,508.0,510.0,512.0,480.0,509.0,497.0,508.0,497.0,509.0,514.0,533.0,526.0,516.0,512.0,511.0,509.0,503.0
0,24.0,109.0,53.0,514.0,570.0,533.0,508.06666666666666,513.2,508.8333333333333,501.0,497.0,512.0,491.0,476.0,480.0,510.0,513.0,508.0,513.0,514.0,509.0,503.0,508.0,511.0,507.0,510.0,491.0,499.0,508.0,504.0,508.0,506.0,509.0,509.0,501.0,520.0,481.0,476.0,496.0,527.0,531.0,524.0,493.0,537.0,508.0,491.0,554.0,570.0,520.0,517.0,513.0,509.0,531.0,515.0,497.0,526.0,504.0,508.0,510.0,512.0,480.0,509.0,497.0,508.0,497.0,509.0,514.0,533.0,526.0,516.0,512.0,511.0,509.0,503.0,512.0
0,24.0,109.0,53.0,514.0,570.0,533.0,508.06666666666666,513.1666666666666,509.03333333333336,509.0,495.0,527.0,491.0,476.0,480.0,513.0,508.0,513.0,514.0,509.0,503.0,508.0,511.0,507.0,510.0,491.0,499.0,508.0,504.0,508.0,506.0,509.0,509.0,501.0,509.0,481.0,476.0,496.0,527.0,531.0,524.0,493.0,537.0,508.0,491.0,554.0,570.0,520.0,517.0,513.0,509.0,531.0,515.0,497.0,495.0,504.0,508.0,510.0,512.0,480.0,509.0,497.0,508.0,497.0,509.0,514.0,533.0,526.0,516.0,512.0,511.0,509.0,503.0,512.0,527.0
0,24.0,94.0,53.0,514.0,570.0,533.0,508.06666666666666,514.9,509.2,509.0,513.0,519.0,491.0,476.0,480.0,508.0,513.0,514.0,509.0,503.0,508.0,511.0,507.0,510.0,491.0,499.0,508.0,504.0,508.0,506.0,509.0,509.0,501.0,509.0,509.0,476.0,496.0,527.0,531.0,524.0,493.0,537.0,508.0,491.0,554.0,570.0,520.0,517.0,513.0,509.0,531.0,515.0,497.0,495.0,513.0,508.0,510.0,512.0,480.0,509.0,497.0,508.0,497.0,509.0,514.0,533.0,526.0,516.0,512.0,511.0,509.0,503.0,512.0,527.0,519.0
0,24.0,94.0,53.0,514.0,570.0,533.0,508.06666666666666,516.1,509.73333333333335,507.0,531.0,526.0,491.0,491.0,480.0,513.0,514.0,509.0,503.0,508.0,511.0,507.0,510.0,491.0,499.0,508.0,504.0,508.0,506.0,509.0,509.0,501.0,509.0,509.0,507.0,496.0,527.0,531.0,524.0,493.0,537.0,508.0,491.0,554.0,570.0,520.0,517.0,513.0,509.0,531.0,515.0,497.0,495.0,513.0,531.0,510.0,512.0,480.0,509.0,497.0,508.0,497.0,509.0,514.0,533.0,526.0,516.0,512.0,511.0,509.0,503.0,512.0,527.0,519.0,526.0
0,24.0,94.0,53.0,514.0,570.0,533.0,507.9,514.8666666666667,509.8,508.0,499.0,520.0,491.0,491.0,480.0,514.0,509.0,503.0,508.0,511.0,507.0,510.0,491.0,499.0,508.0,504.0,508.0,506.0,509.0,509.0,501.0,509.0,509.0,507.0,508.0,527.0,531.0,524.0,493.0,537.0,508.0,491.0,554.0,570.0,520.0,517.0,513.0,509.0,531.0,515.0,497.0,495.0,513.0,531.0,499.0,512.0,480.0,509.0,497.0,508.0,497.0,509.0,514.0,533.0,526.0,516.0,512.0,511.0,509.0,503.0,512.0,527.0,519.0,526.0,520.0
0,23.0,94.0,53.0,511.0,570.0,533.0,507.6333333333333,513.9333333333333,510.3333333333333,507.0,493.0,518.0,491.0,491.0,480.0,509.0,503.0,508.0,511.0,507.0,510.0,491.0,499.0,508.0,504.0,508.0,506.0,509.0,509.0,501.0,509.0,509.0,507.0,508.0,507.0,531.0,524.0,493.0,537.0,508.0,491.0,554.0,570.0,520.0,517.0,513.0,509.0,531.0,515.0,497.0,495.0,513.0,531.0,499.0,493.0,480.0,509.0,497.0,508.0,497.0,509.0,514.0,533.0,526.0,516.0,512.0,511.0,509.0,503.0,512.0,527.0,519.0,526.0,520.0,518.0
0,23.0,94.0,53.0,511.0,570.0,533.0,507.3666666666667,514.1333333333333,510.8333333333333,504.0,501.0,517.0,491.0,491.0,497.0,503.0,508.0,511.0,507.0,510.0,491.0,499.0,508.0,504.0,508.0,506.0,509.0,509.0,501.0,509.0,509.0,507.0,508.0,507.0,504.0,524.0,493.0,537.0,508.0,491.0,554.0,570.0,520.0,517.0,513.0,509.0,531.0,515.0,497.0,495.0,513.0,531.0,499.0,493.0,501.0,509.0,497.0,508.0,497.0,509.0,514.0,533.0,526.0,516.0,512.0,511.0,509.0,503.0,512.0,527.0,519.0,526.0,520.0,518.0,517.0
0,23.0,94.0,53.0,511.0,570.0,533.0,507.1333333333333,514.6666666666666,511.43333333333334,505.0,505.0,505.0,491.0,491.0,497.0,508.0,511.0,507.0,510.0,491.0,499.0,508.0,504.0,508.0,506.0,509.0,509.0,501.0,509.0,509.0,507.0,508.0,507.0,504.0,505.0,493.0,537.0,508.0,491.0,554.0,570.0,520.0,517.0,513.0,509.0,531.0,515.0,497.0,495.0,513.0,531.0,499.0,493.0,501.0,505.0,497.0,508.0,497.0,509.0,514.0,533.0,526.0,516.0,512.0,511.0,509.0,503.0,512.0,527.0,519.0,526.0,520.0,518.0,517.0,505.0
0,23.0,94.0,53.0,511.0,570.0,533.0,507.06666666666666,514.8333333333334,512.0333333333333,506.0,508.0,505.0,491.0,491.0,497.0,511.0,507.0,510.0,491.0,499.0,508.0,504.0,508.0,506.0,509.0,509.0,501.0,509.0,509.0,507.0,508.0,507.0,504.0,505.0,506.0,537.0,508.0,491.0,554.0,570.0,520.0,517.0,513.0,509.0,531.0,515.0,497.0,495.0,513.0,531.0,499.0,493.0,501.0,505.0,508.0,508.0,497.0,509.0,514.0,533.0,526.0,516.0,512.0,511.0,509.0,503.0,512.0,527.0,519.0,526.0,520.0,518.0,517.0,505.0,505.0
0,23.0,94.0,53.0,510.0,570.0,533.0,507.0,513.8333333333334,511.8,505.0,511.0,500.0,491.0,491.0,497.0,507.0,510.0,491.0,499.0,508.0,504.0,508.0,506.0,509.0,509.0,501.0,509.0,509.0,507.0,508.0,507.0,504.0,505.0,506.0,505.0,508.0,491.0,554.0,570.0,520.0,517.0,513.0,509.0,531.0,515.0,497.0,495.0,513.0,531.0,499.0,493.0,501.0,505.0,508.0,511.0,497.0,509.0,514.0,533.0,526.0,516.0,512.0,511.0,509.0,503.0,512.0,527.0,519.0,526.0,520.0,518.0,517.0,505.0,505.0,500.0
0,23.0,94.0,53.0,510.0,570.0,533.0,506.8333333333333,513.2666666666667,511.3333333333333,504.0,532.0,507.0,491.0,491.0,500.0,510.0,491.0,499.0,508.0,504.0,508.0,506.0,509.0,509.0,501.0,509.0,509.0,507.0,508.0,507.0,504.0,505.0,506.0,505.0,504.0,491.0,554.0,570.0,520.0,517.0,513.0,509.0,531.0,515.0,497.0,495.0,513.0,531.0,499.0,493.0,501.0,505.0,508.0,511.0,532.0,509.0,514.0,533.0,526.0,516.0,512.0,511.0,509.0,503.0,512.0,527.0,519.0,526.0,520.0,518.0,517.0,505.0,505.0,500.0,507.0
0,23.0,94.0,53.0,511.0,570.0,533.0,506.8666666666667,513.6666666666666,510.8666666666667,511.0,532.0,512.0,491.0,493.0,500.0,491.0,499.0,508.0,504.0,508.0,506.0,509.0,509.0,501.0,509.0,509.0,507.0,508.0,507.0,504.0,505.0,506.0,505.0,504.0,511.0,554.0,570.0,520.0,517.0,513.0,509.0,531.0,515.0,497.0,495.0,513.0,531.0,499.0,493.0,501.0,505.0,508.0,511.0,532.0,532.0,514.0,533.0,526.0,516.0,512.0,511.0,509.0,503.0,512.0,527.0,519.0,526.0,520.0,518.0,517.0,505.0,505.0,500.0,507.0,512.0
0,23.0,94.0,53.0,513.0,570.0,533.0,506.8666666666667,515.1333333333333,511.2,513.0,525.0,514.0,499.0,493.0,500.0,499.0,508.0,504.0,508.0,506.0,509.0,509.0,501.0,509.0,509.0,507.0,508.0,507.0,504.0,505.0,506.0,505.0,504.0,511.0,513.0,570.0,520.0,517.0,513.0,509.0,531.0,515.0,497.0,495.0,513.0,531.0,499.0,493.0,501.0,505.0,508.0,511.0,532.0,532.0,525.0,533.0,526.0,516.0,512.0,511.0,509.0,503.0,512.0,527.0,519.0,526.0,520.0,518.0,517.0,505.0,505.0,500.0,507.0,512.0,514.0
0,23.0,96.0,53.0,513.0,532.0,527.0,507.03333333333336,515.0666666666667,511.73333333333335,513.0,474.0,524.0,501.0,474.0,500.0,508.0,504.0,508.0,506.0,509.0,509.0,501.0,509.0,509.0,507.0,508.0,507.0,504.0,505.0,506.0,505.0,504.0,511.0,513.0,513.0,520.0,517.0,513.0,509.0,531.0,515.0,497.0,495.0,513.0,531.0,499.0,493.0,501.0,505.0,508.0,511.0,532.0,532.0,525.0,474.0,526.0,516.0,512.0,511.0,509.0,503.0,512.0,527.0,519.0,526.0,520.0,518.0,517.0,505.0,505.0,500.0,507.0,512.0,514.0,524.0
0,23.0,96.0,53.0,513.0,532.0,527.0,507.03333333333336,514.5,512.0666666666667,513.0,479.0,520.0,501.0,474.0,500.0,504.0,508.0,506.0,509.0,509.0,501.0,509.0,509.0,507.0,508.0,507.0,504.0,505.0,506.0,505.0,504.0,511.0,513.0,513.0,513.0,517.0,513.0,509.0,531.0,515.0,497.0,495.0,513.0,531.0,499.0,493.0,501.0,505.0,508.0,511.0,532.0,532.0,525.0,474.0,479.0,516.0,512.0,511.0,509.0,503.0,512.0,527.0,519.0,526.0,520.0,518.0,517.0,505.0,505.0,500.0,507.0,512.0,514.0,524.0,520.0
0,22.0,96.0,53.0,513.0,532.0,527.0,506.8666666666667,514.4666666666667,511.56666666666666,509.0,526.0,497.0,501.0,474.0,497.0,508.0,506.0,509.0,509.0,501.0,509.0,509.0,507.0,508.0,507.0,504.0,505.0,506.0,505.0,504.0,511.0,513.0,513.0,513.0,509.0,513.0,509.0,531.0,515.0,497.0,495.0,513.0,531.0,499.0,493.0,501.0,505.0,508.0,511.0,532.0,532.0,525.0,474.0,479.0,526.0,512.0,511.0,509.0,503.0,512.0,527.0,519.0,526.0,520.0,518.0,517.0,505.0,505.0,500.0,507.0,512.0,514.0,524.0,520.0,497.0
0,22.0,96.0,36.0,513.0,544.0,527.0,507.0,514.9,512.4,513.0,544.0,505.0,501.0,474.0,497.0,506.0,509.0,509.0,501.0,509.0,509.0,507.0,508.0,507.0,504.0,505.0,506.0,505.0,504.0,511.0,513.0,513.0,513.0,509.0,513.0,509.0,531.0,515.0,497.0,495.0,513.0,531.0,499.0,493.0,501.0,505.0,508.0,511.0,532.0,532.0,525.0,474.0,479.0,526.0,544.0,511.0,509.0,503.0,512.0,527.0,519.0,526.0,520.0,518.0,517.0,505.0,505.0,500.0,507.0,512.0,514.0,524.0,520.0,497.0,505.0
0,22.0,96.0,41.0,513.0,544.0,527.0,507.23333333333335,514.4666666666667,511.8333333333333,510.0,511.0,492.0,501.0,474.0,492.0,509.0,509.0,501.0,509.0,509.0,507.0,508.0,507.0,504.0,505.0,506.0,505.0,504.0,511.0,513.0,513.0,513.0,509.0,513.0,510.0,531.0,515.0,497.0,495.0,513.0,531.0,499.0,493.0,501.0,505.0,508.0,511.0,532.0,532.0,525.0,474.0,479.0,526.0,544.0,511.0,509.0,503.0,512.0,527.0,519.0,526.0,520.0,518.0,517.0,505.0,505.0,500.0,507.0,512.0,514.0,524.0,520.0,497.0,505.0,492.0
0,22.0,96.0,41.0,513.0,544.0,527.0,507.3,515.9333333333333,511.9,510.0,537.0,499.0,501.0,474.0,492.0,509.0,501.0,509.0,509.0,507.0,508.0,507.0,504.0,505.0,506.0,505.0,504.0,511.0,513.0,513.0,513.0,509.0,513.0,510.0,510.0,515.0,497.0,495.0,513.0,531.0,499.0,493.0,501.0,505.0,508.0,511.0,532.0,532.0,525.0,474.0,479.0,526.0,544.0,511.0,537.0,503.0,512.0,527.0,519.0,526.0,520.0,518.0,517.0,505.0,505.0,500.0,507.0,512.0,514.0,524.0,520.0,497.0,505.0,492.0,499.0
0,22.0,96.0,41.0,513.0,544.0,527.0,507.1666666666667,515.1333333333333,511.3666666666667,507.0,513.0,492.0,501.0,474.0,492.0,501.0,509.0,509.0,507.0,508.0,507.0,504.0,505.0,506.0,505.0,504.0,511.0,513.0,513.0,513.0,509.0,513.0,510.0,510.0,507.0,497.0,495.0,513.0,531.0,499.0,493.0,501.0,505.0,508.0,511.0,532.0,532.0,525.0,474.0,479.0,526.0,544.0,511.0,537.0,513.0,512.0,527.0,519.0,526.0,520.0,518.0,517.0,505.0,505.0,500.0,507.0,512.0,514.0,524.0,520.0,497.0,505.0,492.0,499.0,492.0
0,22.0,96.0,41.0,513.0,544.0,527.0,507.1666666666667,515.1333333333333,511.73333333333335,507.0,508.0,508.0,504.0,474.0,492.0,509.0,509.0,507.0,508.0,507.0,504.0,505.0,506.0,505.0,504.0,511.0,513.0,513.0,513.0,509.0,513.0,510.0,510.0,507.0,507.0,495.0,513.0,531.0,499.0,493.0,501.0,505.0,508.0,511.0,532.0,532.0,525.0,474.0,479.0,526.0,544.0,511.0,537.0,513.0,508.0,527.0,519.0,526.0,520.0,518.0,517.0,505.0,505.0,500.0,507.0,512.0,514.0,524.0,520.0,497.0,505.0,492.0,499.0,492.0,508.0
0,22.0,96.0,41.0,513.0,544.0,526.0,507.1,516.4,511.93333333333334,508.0,529.0,515.0,504.0,474.0,492.0,509.0,507.0,508.0,507.0,504.0,505.0,506.0,505.0,504.0,511.0,513.0,513.0,513.0,509.0,513.0,510.0,510.0,507.0,507.0,508.0,513.0,531.0,499.0,493.0,501.0,505.0,508.0,511.0,532.0,532.0,525.0,474.0,479.0,526.0,544.0,511.0,537.0,513.0,508.0,529.0,519.0,526.0,520.0,518.0,517.0,505.0,505.0,500.0,507.0,512.0,514.0,524.0,520.0,497.0,505.0,492.0,499.0,492.0,508.0,515.0
0,14.0,96.0,41.0,513.0,544.0,526.0,507.6666666666667,514.3,512.1666666666666,508.0,491.0,521.0,504.0,474.0,492.0,507.0,508.0,507.0,504.0,505.0,506.0,505.0,504.0,511.0,513.0,513.0,513.0,509.0,513.0,510.0,510.0,507.0,507.0,508.0,508.0,531.0,499.0,493.0,501.0,505.0,508.0,511.0,532.0,532.0,525.0,474.0,479.0,526.0,544.0,511.0,537.0,513.0,508.0,529.0,491.0,526.0,520.0,518.0,517.0,505.0,505.0,500.0,507.0,512.0,514.0,524.0,520.0,497.0,505.0,492.0,499.0,492.0,508.0,515.0,521.0
0,12.0,70.0,35.0,513.0,544.0,524.0,507.8333333333333,511.43333333333334,511.5,504.0,484.0,513.0,504.0,474.0,492.0,508.0,507.0,504.0,505.0,506.0,505.0,504.0,511.0,513.0,513.0,513.0,509.0,513.0,510.0,510.0,507.0,507.0,508.0,508.0,504.0,499.0,493.0,501.0,505.0,508.0,511.0,532.0,532.0,525.0,474.0,479.0,526.0,544.0,511.0,537.0,513.0,508.0,529.0,491.0,484.0,520.0,518.0,517.0,505.0,505.0,500.0,507.0,512.0,514.0,524.0,520.0,497.0,505.0,492.0,499.0,492.0,508.0,515.0,521.0,513.0
0,12.0,70.0,35.0,513.0,544.0,524.0,507.6666666666667,510.3,511.1,503.0,486.0,514.0,503.0,474.0,492.0,507.0,504.0,505.0,506.0,505.0,504.0,511.0,513.0,513.0,513.0,509.0,513.0,510.0,510.0,507.0,507.0,508.0,508.0,504.0,503.0,493.0,501.0,505.0,508.0,511.0,532.0,532.0,525.0,474.0,479.0,526.0,544.0,511.0,537.0,513.0,508.0,529.0,491.0,484.0,486.0,518.0,517.0,505.0,505.0,500.0,507.0,512.0,514.0,524.0,520.0,497.0,505.0,492.0,499.0,492.0,508.0,515.0,521.0,513.0,514.0
0,12.0,83.0,35.0,513.0,544.0,524.0,507.76666666666665,508.43333333333334,511.2,507.0,461.0,519.0,503.0,461.0,492.0,504.0,505.0,506.0,505.0,504.0,511.0,513.0,513.0,513.0,509.0,513.0,510.0,510.0,507.0,507.0,508.0,508.0,504.0,503.0,507.0,501.0,505.0,508.0,511.0,532.0,532.0,525.0,474.0,479.0,526.0,544.0,511.0,537.0,513.0,508.0,529.0,491.0,484.0,486.0,461.0,517.0,505.0,505.0,500.0,507.0,512.0,514.0,524.0,520.0,497.0,505.0,492.0,499.0,492.0,508.0,515.0,521.0,513.0,514.0,519.0
0,19.0,83.0,37.0,520.0,544.0,529.0,508.1666666666667,508.26666666666665,511.76666666666665,520.0,508.0,529.0,503.0,461.0,492.0,505.0,506.0,505.0,504.0,511.0,513.0,513.0,513.0,509.0,513.0,510.0,510.0,507.0,507.0,508.0,508.0,504.0,503.0,507.0,520.0,505.0,508.0,511.0,532.0,532.0,525.0,474.0,479.0,526.0,544.0,511.0,537.0,513.0,508.0,529.0,491.0,484.0,486.0,461.0,508.0,505.0,505.0,500.0,507.0,512.0,514.0,524.0,520.0,497.0,505.0,492.0,499.0,492.0,508.0,515.0,521.0,513.0,514.0,519.0,529.0
0,19.0,83.0,37.0,520.0,544.0,529.0,508.46666666666664,508.6666666666667,511.53333333333336,515.0,521.0,504.0,503.0,461.0,492.0,506.0,505.0,504.0,511.0,513.0,513.0,513.0,509.0,513.0,510.0,510.0,507.0,507.0,508.0,508.0,504.0,503.0,507.0,520.0,515.0,508.0,511.0,532.0,532.0,525.0,474.0,479.0,526.0,544.0,511.0,537.0,513.0,508.0,529.0,491.0,484.0,486.0,461.0,508.0,521.0,505.0,500.0,507.0,512.0,514.0,524.0,520.0,497.0,505.0,492.0,499.0,492.0,508.0,515.0,521.0,513.0,514.0,519.0,529.0,504.0
0,19.0,83.0,37.0,520.0,544.0,529.0,508.6333333333333,508.2,511.06666666666666,514.0,517.0,495.0,503.0,461.0,492.0,505.0,504.0,511.0,513.0,513.0,513.0,509.0,513.0,510.0,510.0,507.0,507.0,508.0,508.0,504.0,503.0,507.0,520.0,515.0,514.0,511.0,532.0,532.0,525.0,474.0,479.0,526.0,544.0,511.0,537.0,513.0,508.0,529.0,491.0,484.0,486.0,461.0,508.0,521.0,517.0,500.0,507.0,512.0,514.0,524.0,520.0,497.0,505.0,492.0,499.0,492.0,508.0,515.0,521.0,513.0,514.0,519.0,529.0,504.0,495.0
0,19.0,83.0,37.0,520.0,544.0,529.0,508.7,506.96666666666664,510.8666666666667,511.0,478.0,497.0,503.0,461.0,492.0,504.0,511.0,513.0,513.0,513.0,509.0,513.0,510.0,510.0,507.0,507.0,508.0,508.0,504.0,503.0,507.0,520.0,515.0,514.0,511.0,532.0,532.0,525.0,474.0,479.0,526.0,544.0,511.0,537.0,513.0,508.0,529.0,491.0,484.0,486.0,461.0,508.0,521.0,517.0,478.0,507.0,512.0,514.0,524.0,520.0,497.0,505.0,492.0,499.0,492.0,508.0,515.0,521.0,513.0,514.0,519.0,529.0,504.0,495.0,497.0
0,17.0,101.0,37.0,520.0,544.0,529.0,509.03333333333336,505.1666666666667,510.7,511.0,443.0,507.0,503.0,443.0,492.0,511.0,513.0,513.0,513.0,509.0,513.0,510.0,510.0,507.0,507.0,508.0,508.0,504.0,503.0,507.0,520.0,515.0,514.0,511.0,511.0,532.0,525.0,474.0,479.0,526.0,544.0,511.0,537.0,513.0,508.0,529.0,491.0,484.0,486.0,461.0,508.0,521.0,517.0,478.0,443.0,512.0,514.0,524.0,520.0,497.0,505.0,492.0,499.0,492.0,508.0,515.0,521.0,513.0,514.0,519.0,529.0,504.0,495.0,497.0,507.0
0,17.0,101.0,37.0,520.0,544.0,529.0,509.1333333333333,505.5,510.1,512.0,505.0,509.0,503.0,443.0,492.0,513.0,513.0,513.0,509.0,513.0,510.0,510.0,507.0,507.0,508.0,508.0,504.0,503.0,507.0,520.0,515.0,514.0,511.0,511.0,512.0,525.0,474.0,479.0,526.0,544.0,511.0,537.0,513.0,508.0,529.0,491.0,484.0,486.0,461.0,508.0,521.0,517.0,478.0,443.0,505.0,514.0,524.0,520.0,497.0,505.0,492.0,499.0,492.0,508.0,515.0,521.0,513.0,514.0,519.0,529.0,504.0,495.0,497.0,507.0,509.0
0,17.0,101.0,37.0,520.0,544.0,529.0,509.3333333333333,505.53333333333336,510.1333333333333,515.0,514.0,520.0,503.0,443.0,492.0,513.0,513.0,509.0,513.0,510.0,510.0,507.0,507.0,508.0,508.0,504.0,503.0,507.0,520.0,515.0,514.0,511.0,511.0,512.0,515.0,474.0,479.0,526.0,544.0,511.0,537.0,513.0,508.0,529.0,491.0,484.0,486.0,461.0,508.0,521.0,517.0,478.0,443.0,505.0,514.0,524.0,520.0,497.0,505.0,492.0,499.0,492.0,508.0,515.0,521.0,513.0,514.0,519.0,529.0,504.0,495.0,497.0,507.0,509.0,520.0
0,17.0,101.0,37.0,520.0,544.0,529.0,509.46666666666664,504.73333333333335,509.9,511.0,507.0,519.0,503.0,443.0,492.0,513.0,509.0,513.0,510.0,510.0,507.0,507.0,508.0,508.0,504.0,503.0,507.0,520.0,515.0,514.0,511.0,511.0,512.0,515.0,511.0,479.0,526.0,544.0,511.0,537.0,513.0,508.0,529.0,491.0,484.0,486.0,461.0,508.0,521.0,517.0,478.0,443.0,505.0,514.0,507.0,520.0,497.0,505.0,492.0,499.0,492.0,508.0,515.0,521.0,513.0,514.0,519.0,529.0,504.0,495.0,497.0,507.0,509.0,520.0,519.0
0,17.0,101.0,37.0,520.0,544.0,529.0,509.6666666666667,504.4,509.96666666666664,514.0,489.0,522.0,503.0,443.0,492.0,509.0,513.0,510.0,510.0,507.0,507.0,508.0,508.0,504.0,503.0,507.0,520.0,515.0,514.0,511.0,511.0,512.0,515.0,511.0,514.0,526.0,544.0,511.0,537.0,513.0,508.0,529.0,491.0,484.0,486.0,461.0,508.0,521.0,517.0,478.0,443.0,505.0,514.0,507.0,489.0,497.0,505.0,492.0,499.0,492.0,508.0,515.0,521.0,513.0,514.0,519.0,529.0,504.0,495.0,497.0,507.0,509.0,520.0,519.0,522.0
0,17.0,101.0,37.0,520.0,544.0,529.0,509.73333333333335,504.1666666666667,509.6666666666667,509.0,486.0,509.0,503.0,443.0,492.0,513.0,510.0,510.0,507.0,507.0,508.0,508.0,504.0,503.0,507.0,520.0,515.0,514.0,511.0,511.0,512.0,515.0,511.0,514.0,509.0,544.0,511.0,537.0,513.0,508.0,529.0,491.0,484.0,486.0,461.0,508.0,521.0,517.0,478.0,443.0,505.0,514.0,507.0,489.0,486.0,505.0,492.0,499.0,492.0,508.0,515.0,521.0,513.0,514.0,519.0,529.0,504.0,495.0,497.0,507.0,509.0,520.0,519.0,522.0,509.0
0,17.0,101.0,37.0,520.0,537.0,529.0,510.03333333333336,505.1333333333333,509.0,513.0,530.0,497.0,503.0,443.0,492.0,510.0,510.0,507.0,507.0,508.0,508.0,504.0,503.0,507.0,520.0,515.0,514.0,511.0,511.0,512.0,515.0,511.0,514.0,509.0,513.0,511.0,537.0,513.0,508.0,529.0,491.0,484.0,486.0,461.0,508.0,521.0,517.0,478.0,443.0,505.0,514.0,507.0,489.0,486.0,530.0,492.0,499.0,492.0,508.0,515.0,521.0,513.0,514.0,519.0,529.0,504.0,495.0,497.0,507.0,509.0,520.0,519.0,522.0,509.0,497.0
0,17.0,101.0,37.0,520.0,537.0,529.0,510.1,505.43333333333334,508.8,507.0,514.0,499.0,503.0,443.0,492.0,510.0,507.0,507.0,508.0,508.0,504.0,503.0,507.0,520.0,515.0,514.0,511.0,511.0,512.0,515.0,511.0,514.0,509.0,513.0,507.0,537.0,513.0,508.0,529.0,491.0,484.0,486.0,461.0,508.0,521.0,517.0,478.0,443.0,505.0,514.0,507.0,489.0,486.0,530.0,514.0,499.0,492.0,508.0,515.0,521.0,513.0,514.0,519.0,529.0,504.0,495.0,497.0,507.0,509.0,520.0,519.0,522.0,509.0,497.0,499.0
0,17.0,101.0,37.0,520.0,530.0,529.0,510.06666666666666,505.8666666666667,508.6,505.0,521.0,499.0,503.0,443.0,492.0,507.0,507.0,508.0,508.0,504.0,503.0,507.0,520.0,515.0,514.0,511.0,511.0,512.0,515.0,511.0,514.0,509.0,513.0,507.0,505.0,513.0,508.0,529.0,491.0,484.0,486.0,461.0,508.0,521.0,517.0,478.0,443.0,505.0,514.0,507.0,489.0,486.0,530.0,514.0,521.0,492.0,508.0,515.0,521.0,513.0,514.0,519.0,529.0,504.0,495.0,497.0,507.0,509.0,520.0,519.0,522.0,509.0,497.0,499.0,499.0
0,17.0,101.0,37.0,520.0,530.0,529.0,510.0,504.7,508.8,503.0,476.0,506.0,503.0,443.0,495.0,507.0,508.0,508.0,504.0,503.0,507.0,520.0,515.0,514.0,511.0,511.0,512.0,515.0,511.0,514.0,509.0,513.0,507.0,505.0,503.0,508.0,529.0,491.0,484.0,486.0,461.0,508.0,521.0,517.0,478.0,443.0,505.0,514.0,507.0,489.0,486.0,530.0,514.0,521.0,476.0,508.0,515.0,521.0,513.0,514.0,519.0,529.0,504.0,495.0,497.0,507.0,509.0,520.0,519.0,522.0,509.0,497.0,499.0,499.0,506.0
0,17.0,101.0,37.0,520.0,530.0,529.0,510.0,503.8333333333333,508.8666666666667,504.0,506.0,509.0,503.0,443.0,495.0,508.0,508.0,504.0,503.0,507.0,520.0,515.0,514.0,511.0,511.0,512.0,515.0,511.0,514.0,509.0,513.0,507.0,505.0,503.0,504.0,529.0,491.0,484.0,486.0,461.0,508.0,521.0,517.0,478.0,443.0,505.0,514.0,507.0,489.0,486.0,530.0,514.0,521.0,476.0,506.0,515.0,521.0,513.0,514.0,519.0,529.0,504.0,495.0,497.0,507.0,509.0,520.0,519.0,522.0,509.0,497.0,499.0,499.0,506.0,509.0
0,17.0,101.0,37.0,520.0,530.0,529.0,510.0,503.4,509.0,511.0,519.0,516.0,503.0,443.0,495.0,508.0,504.0,503.0,507.0,520.0,515.0,514.0,511.0,511.0,512.0,515.0,511.0,514.0,509.0,513.0,507.0,505.0,503.0,504.0,511.0,491.0,484.0,486.0,461.0,508.0,521.0,517.0,478.0,443.0,505.0,514.0,507.0,489.0,486.0,530.0,514.0,521.0,476.0,506.0,519.0,521.0,513.0,514.0,519.0,529.0,504.0,495.0,497.0,507.0,509.0,520.0,519.0,522.0,509.0,497.0,499.0,499.0,506.0,509.0,516.0
0,17.0,101.0,37.0,520.0,541.0,529.0,510.0,503.93333333333334,509.06666666666666,513.0,541.0,516.0,503.0,443.0,495.0,504.0,503.0,507.0,520.0,515.0,514.0,511.0,511.0,512.0,515.0,511.0,514.0,509.0,513.0,507.0,505.0,503.0,504.0,511.0,513.0,484.0,486.0,461.0,508.0,521.0,517.0,478.0,443.0,505.0,514.0,507.0,489.0,486.0,530.0,514.0,521.0,476.0,506.0,519.0,541.0,513.0,514.0,519.0,529.0,504.0,495.0,497.0,507.0,509.0,520.0,519.0,522.0,509.0,497.0,499.0,499.0,506.0,509.0,516.0,516.0
0,17.0,102.0,37.0,520.0,545.0,529.0,509.8666666666667,506.3,509.1666666666667,509.0,545.0,527.0,503.0,443.0,495.0,503.0,507.0,520.0,515.0,514.0,511.0,511.0,512.0,515.0,511.0,514.0,509.0,513.0,507.0,505.0,503.0,504.0,511.0,513.0,509.0,486.0,461.0,508.0,521.0,517.0,478.0,443.0,505.0,514.0,507.0,489.0,486.0,530.0,514.0,521.0,476.0,506.0,519.0,541.0,545.0,514.0,519.0,529.0,504.0,495.0,497.0,507.0,509.0,520.0,519.0,522.0,509.0,497.0,499.0,499.0,506.0,509.0,516.0,516.0,527.0
0,17.0,102.0,37.0,520.0,545.0,529.0,509.8,507.7,508.96666666666664,511.0,521.0,514.0,503.0,443.0,495.0,507.0,520.0,515.0,514.0,511.0,511.0,512.0,515.0,511.0,514.0,509.0,513.0,507.0,505.0,503.0,504.0,511.0,513.0,509.0,511.0,461.0,508.0,521.0,517.0,478.0,443.0,505.0,514.0,507.0,489.0,486.0,530.0,514.0,521.0,476.0,506.0,519.0,541.0,545.0,521.0,519.0,529.0,504.0,495.0,497.0,507.0,509.0,520.0,519.0,522.0,509.0,497.0,499.0,499.0,506.0,509.0,516.0,516.0,527.0,514.0
0,17.0,102.0,37.0,520.0,545.0,529.0,509.73333333333335,505.8,509.2,507.0,469.0,504.0,503.0,443.0,495.0,520.0,515.0,514.0,511.0,511.0,512.0,515.0,511.0,514.0,509.0,513.0,507.0,505.0,503.0,504.0,511.0,513.0,509.0,511.0,507.0,508.0,521.0,517.0,478.0,443.0,505.0,514.0,507.0,489.0,486.0,530.0,514.0,521.0,476.0,506.0,519.0,541.0,545.0,521.0,469.0,529.0,504.0,495.0,497.0,507.0,509.0,520.0,519.0,522.0,509.0,497.0,499.0,499.0,506.0,509.0,516.0,516.0,527.0,514.0,504.0
0,17.0,102.0,37.0,515.0,545.0,527.0,509.6333333333333,505.3333333333333,509.26666666666665,510.0,530.0,507.0,503.0,443.0,495.0,515.0,514.0,511.0,511.0,512.0,515.0,511.0,514.0,509.0,513.0,507.0,505.0,503.0,504.0,511.0,513.0,509.0,511.0,507.0,510.0,521.0,517.0,478.0,443.0,505.0,514.0,507.0,489.0,486.0,530.0,514.0,521.0,476.0,506.0,519.0,541.0,545.0,521.0,469.0,530.0,504.0,495.0,497.0,507.0,509.0,520.0,519.0,522.0,509.0,497.0,499.0,499.0,506.0,509.0,516.0,516.0,527.0,514.0,504.0,507.0
0,17.0,102.0,37.0,515.0,545.0,527.0,509.56666666666666,506.03333333333336,509.26666666666665,508.0,532.0,492.0,503.0,443.0,492.0,514.0,511.0,511.0,512.0,515.0,511.0,514.0,509.0,513.0,507.0,505.0,503.0,504.0,511.0,513.0,509.0,511.0,507.0,510.0,508.0,517.0,478.0,443.0,505.0,514.0,507.0,489.0,486.0,530.0,514.0,521.0,476.0,506.0,519.0,541.0,545.0,521.0,469.0,530.0,532.0,495.0,497.0,507.0,509.0,520.0,519.0,522.0,509.0,497.0,499.0,499.0,506.0,509.0,516.0,516.0,527.0,514.0,504.0,507.0,492.0
0,17.0,102.0,37.0,515.0,545.0,527.0,509.5,505.8,509.56666666666666,508.0,530.0,508.0,503.0,443.0,492.0,511.0,511.0,512.0,515.0,511.0,514.0,509.0,513.0,507.0,505.0,503.0,504.0,511.0,513.0,509.0,511.0,507.0,510.0,508.0,508.0,478.0,443.0,505.0,514.0,507.0,489.0,486.0,530.0,514.0,521.0,476.0,506.0,519.0,541.0,545.0,521.0,469.0,530.0,532.0,530.0,497.0,507.0,509.0,520.0,519.0,522.0,509.0,497.0,499.0,499.0,506.0,509.0,516.0,516.0,527.0,514.0,504.0,507.0,492.0,508.0
0,17.0,102.0,37.0,515.0,545.0,527.0,509.53333333333336,505.8,509.7,508.0,513.0,496.0,503.0,443.0,492.0,511.0,512.0,515.0,511.0,514.0,509.0,513.0,507.0,505.0,503.0,504.0,511.0,513.0,509.0,511.0,507.0,510.0,508.0,508.0,508.0,443.0,505.0,514.0,507.0,489.0,486.0,530.0,514.0,521.0,476.0,506.0,519.0,541.0,545.0,521.0,469.0,530.0,532.0,530.0,513.0,507.0,509.0,520.0,519.0,522.0,509.0,497.0,499.0,499.0,506.0,509.0,516.0,516.0,527.0,514.0,504.0,507.0,492.0,508.0,496.0
0,17.0,102.0,37.0,515.0,545.0,527.0,509.6333333333333,505.3666666666667,509.5,510.0,495.0,502.0,503.0,469.0,492.0,512.0,515.0,511.0,514.0,509.0,513.0,507.0,505.0,503.0,504.0,511.0,513.0,509.0,511.0,507.0,510.0,508.0,508.0,508.0,510.0,505.0,514.0,507.0,489.0,486.0,530.0,514.0,521.0,476.0,506.0,519.0,541.0,545.0,521.0,469.0,530.0,532.0,530.0,513.0,495.0,509.0,520.0,519.0,522.0,509.0,497.0,499.0,499.0,506.0,509.0,516.0,516.0,527.0,514.0,504.0,507.0,492.0,508.0,496.0,502.0
0,17.0,102.0,37.0,515.0,545.0,527.0,509.73333333333335,505.0,509.6333333333333,511.0,518.0,519.0,503.0,469.0,492.0,515.0,511.0,514.0,509.0,513.0,507.0,505.0,503.0,504.0,511.0,513.0,509.0,511.0,507.0,510.0,508.0,508.0,508.0,510.0,511.0,514.0,507.0,489.0,486.0,530.0,514.0,521.0,476.0,506.0,519.0,541.0,545.0,521.0,469.0,530.0,532.0,530.0,513.0,495.0,518.0,520.0,519.0,522.0,509.0,497.0,499.0,499.0,506.0,509.0,516.0,516.0,527.0,514.0,504.0,507.0,492.0,508.0,496.0,502.0,519.0
0,17.0,102.0,37.0,514.0,545.0,527.0,509.8,506.1666666666667,509.53333333333336,510.0,526.0,518.0,503.0,469.0,492.0,511.0,514.0,509.0,513.0,507.0,505.0,503.0,504.0,511.0,513.0,509.0,511.0,507.0,510.0,508.0,508.0,508.0,510.0,511.0,510.0,507.0,489.0,486.0,530.0,514.0,521.0,476.0,506.0,519.0,541.0,545.0,521.0,469.0,530.0,532.0,530.0,513.0,495.0,518.0,526.0,519.0,522.0,509.0,497.0,499.0,499.0,506.0,509.0,516.0,516.0,527.0,514.0,504.0,507.0,492.0,508.0,496.0,502.0,519.0,518.0
0,17.0,102.0,37.0,514.0,545.0,527.0,509.8666666666667,507.7,509.7,506.0,530.0,518.0,503.0,469.0,492.0,514.0,509.0,513.0,507.0,505.0,503.0,504.0,511.0,513.0,509.0,511.0,507.0,510.0,508.0,508.0,508.0,510.0,511.0,510.0,506.0,489.0,486.0,530.0,514.0,521.0,476.0,506.0,519.0,541.0,545.0,521.0,469.0,530.0,532.0,530.0,513.0,495.0,518.0,526.0,530.0,522.0,509.0,497.0,499.0,499.0,506.0,509.0,516.0,516.0,527.0,514.0,504.0,507.0,492.0,508.0,496.0,502.0,519.0,518.0,518.0
0,17.0,102.0,37.0,515.0,545.0,527.0,510.26666666666665,507.76666666666665,509.73333333333335,515.0,488.0,515.0,503.0,469.0,492.0,509.0,513.0,507.0,505.0,503.0,504.0,511.0,513.0,509.0,511.0,507.0,510.0,508.0,508.0,508.0,510.0,511.0,510.0,506.0,515.0,486.0,530.0,514.0,521.0,476.0,506.0,519.0,541.0,545.0,521.0,469.0,530.0,532.0,530.0,513.0,495.0,518.0,526.0,530.0,488.0,509.0,497.0,499.0,499.0,506.0,509.0,516.0,516.0,527.0,514.0,504.0,507.0,492.0,508.0,496.0,502.0,519.0,518.0,518.0,515.0
0,17.0,102.0,37.0,515.0,545.0,529.0,510.53333333333336,508.5,510.06666666666666,515.0,483.0,529.0,503.0,469.0,492.0,513.0,507.0,505.0,503.0,504.0,511.0,513.0,509.0,511.0,507.0,510.0,508.0,508.0,508.0,510.0,511.0,510.0,506.0,515.0,515.0,530.0,514.0,521.0,476.0,506.0,519.0,541.0,545.0,521.0,469.0,530.0,532.0,530.0,513.0,495.0,518.0,526.0,530.0,488.0,483.0,497.0,499.0,499.0,506.0,509.0,516.0,516.0,527.0,514.0,504.0,507.0,492.0,508.0,496.0,502.0,519.0,518.0,518.0,515.0,529.0
0,12.0,102.0,37.0,515.0,545.0,529.0,510.1,509.3333333333333,509.0,507.0,533.0,497.0,503.0,469.0,492.0,507.0,505.0,503.0,504.0,511.0,513.0,509.0,511.0,507.0,510.0,508.0,508.0,508.0,510.0,511.0,510.0,506.0,515.0,515.0,507.0,514.0,521.0,476.0,506.0,519.0,541.0,545.0,521.0,469.0,530.0,532.0,530.0,513.0,495.0,518.0,526.0,530.0,488.0,483.0,533.0,499.0,499.0,506.0,509.0,516.0,516.0,527.0,514.0,504.0,507.0,492.0,508.0,496.0,502.0,519.0,518.0,518.0,515.0,529.0,497.0
0,17.0,102.0,37.0,515.0,545.0,529.0,509.53333333333336,509.8333333333333,508.93333333333334,498.0,536.0,502.0,498.0,469.0,492.0,505.0,503.0,504.0,511.0,513.0,509.0,511.0,507.0,510.0,508.0,508.0,508.0,510.0,511.0,510.0,506.0,515.0,515.0,507.0,498.0,521.0,476.0,506.0,519.0,541.0,545.0,521.0,469.0,530.0,532.0,530.0,513.0,495.0,518.0,526.0,530.0,488.0,483.0,533.0,536.0,499.0,506.0,509.0,516.0,516.0,527.0,514.0,504.0,507.0,492.0,508.0,496.0,502.0,519.0,518.0,518.0,515.0,529.0,497.0,502.0
0,17.0,102.0,37.0,515.0,545.0,529.0,509.2,509.9,509.26666666666665,504.0,519.0,505.0,498.0,469.0,492.0,503.0,504.0,511.0,513.0,509.0,511.0,507.0,510.0,508.0,508.0,508.0,510.0,511.0,510.0,506.0,515.0,515.0,507.0,498.0,504.0,476.0,506.0,519.0,541.0,545.0,521.0,469.0,530.0,532.0,530.0,513.0,495.0,518.0,526.0,530.0,488.0,483.0,533.0,536.0,519.0,506.0,509.0,516.0,516.0,527.0,514.0,504.0,507.0,492.0,508.0,496.0,502.0,519.0,518.0,518.0,515.0,529.0,497.0,502.0,505.0
0,17.0,102.0,37.0,515.0,545.0,529.0,508.93333333333334,511.2,509.6,503.0,517.0,507.0,498.0,469.0,492.0,504.0,511.0,513.0,509.0,511.0,507.0,510.0,508.0,508.0,508.0,510.0,511.0,510.0,506.0,515.0,515.0,507.0,498.0,504.0,503.0,506.0,519.0,541.0,545.0,521.0,469.0,530.0,532.0,530.0,513.0,495.0,518.0,526.0,530.0,488.0,483.0,533.0,536.0,519.0,517.0,509.0,516.0,516.0,527.0,514.0,504.0,507.0,492.0,508.0,496.0,502.0,519.0,518.0,518.0,515.0,529.0,497.0,502.0,505.0,507.0
0,17.0,76.0,37.0,515.0,545.0,529.0,508.7,512.9333333333333,509.6666666666667,504.0,495.0,509.0,498.0,469.0,492.0,511.0,513.0,509.0,511.0,507.0,510.0,508.0,508.0,508.0,510.0,511.0,510.0,506.0,515.0,515.0,507.0,498.0,504.0,503.0,504.0,519.0,541.0,545.0,521.0,469.0,530.0,532.0,530.0,513.0,495.0,518.0,526.0,530.0,488.0,483.0,533.0,536.0,519.0,517.0,495.0,516.0,516.0,527.0,514.0,504.0,507.0,492.0,508.0,496.0,502.0,519.0,518.0,518.0,515.0,529.0,497.0,502.0,505.0,507.0,509.0
0,17.0,76.0,37.0,515.0,545.0,529.0,508.6,513.2,510.03333333333336,509.0,513.0,520.0,498.0,469.0,492.0,513.0,509.0,511.0,507.0,510.0,508.0,508.0,508.0,510.0,511.0,510.0,506.0,515.0,515.0,507.0,498.0,504.0,503.0,504.0,509.0,541.0,545.0,521.0,469.0,530.0,532.0,530.0,513.0,495.0,518.0,526.0,530.0,488.0,483.0,533.0,536.0,519.0,517.0,495.0,513.0,516.0,527.0,514.0,504.0,507.0,492.0,508.0,496.0,502.0,519.0,518.0,518.0,515.0,529.0,497.0,502.0,505.0,507.0,509.0,520.0
0,17.0,76.0,37.0,515.0,545.0,529.0,508.43333333333334,512.5,509.73333333333335,510.0,493.0,511.0,498.0,469.0,492.0,509.0,511.0,507.0,510.0,508.0,508.0,508.0,510.0,511.0,510.0,506.0,515.0,515.0,507.0,498.0,504.0,503.0,504.0,509.0,510.0,545.0,521.0,469.0,530.0,532.0,530.0,513.0,495.0,518.0,526.0,530.0,488.0,483.0,533.0,536.0,519.0,517.0,495.0,513.0,493.0,527.0,514.0,504.0,507.0,492.0,508.0,496.0,502.0,519.0,518.0,518.0,515.0,529.0,497.0,502.0,505.0,507.0,509.0,520.0,511.0
0,17.0,76.0,37.0,515.0,536.0,529.0,508.4,512.3666666666667,509.76666666666665,510.0,503.0,520.0,498.0,469.0,492.0,511.0,507.0,510.0,508.0,508.0,508.0,510.0,511.0,510.0,506.0,515.0,515.0,507.0,498.0,504.0,503.0,504.0,509.0,510.0,510.0,521.0,469.0,530.0,532.0,530.0,513.0,495.0,518.0,526.0,530.0,488.0,483.0,533.0,536.0,519.0,517.0,495.0,513.0,493.0,503.0,514.0,504.0,507.0,492.0,508.0,496.0,502.0,519.0,518.0,518.0,515.0,529.0,497.0,502.0,505.0,507.0,509.0,520.0,511.0,520.0
0,17.0,76.0,37.0,515.0,536.0,529.0,508.1666666666667,512.0666666666667,509.3333333333333,507.0,480.0,509.0,498.0,469.0,492.0,507.0,510.0,508.0,508.0,508.0,510.0,511.0,510.0,506.0,515.0,515.0,507.0,498.0,504.0,503.0,504.0,509.0,510.0,510.0,507.0,469.0,530.0,532.0,530.0,513.0,495.0,518.0,526.0,530.0,488.0,483.0,533.0,536.0,519.0,517.0,495.0,513.0,493.0,503.0,480.0,504.0,507.0,492.0,508.0,496.0,502.0,519.0,518.0,518.0,515.0,529.0,497.0,502.0,505.0,507.0,509.0,520.0,511.0,520.0,509.0
0,17.0,76.0,37.0,515.0,536.0,529.0,508.2,512.6666666666666,509.3666666666667,510.0,504.0,510.0,498.0,480.0,492.0,510.0,508.0,508.0,508.0,510.0,511.0,510.0,506.0,515.0,515.0,507.0,498.0,504.0,503.0,504.0,509.0,510.0,510.0,507.0,510.0,530.0,532.0,530.0,513.0,495.0,518.0,526.0,530.0,488.0,483.0,533.0,536.0,519.0,517.0,495.0,513.0,493.0,503.0,480.0,504.0,507.0,492.0,508.0,496.0,502.0,519.0,518.0,518.0,515.0,529.0,497.0,502.0,505.0,507.0,509.0,520.0,511.0,520.0,509.0,510.0
0,17.0,81.0,37.0,515.0,550.0,529.0,508.03333333333336,513.3333333333334,509.7,508.0,550.0,507.0,498.0,480.0,492.0,508.0,508.0,508.0,510.0,511.0,510.0,506.0,515.0,515.0,507.0,498.0,504.0,503.0,504.0,509.0,510.0,510.0,507.0,510.0,508.0,532.0,530.0,513.0,495.0,518.0,526.0,530.0,488.0,483.0,533.0,536.0,519.0,517.0,495.0,513.0,493.0,503.0,480.0,504.0,550.0,492.0,508.0,496.0,502.0,519.0,518.0,518.0,515.0,529.0,497.0,502.0,505.0,507.0,509.0,520.0,511.0,520.0,509.0,510.0,507.0
0,17.0,81.0,37.0,515.0,550.0,529.0,508.0,513.2,509.46666666666664,506.0,510.0,492.0,498.0,480.0,492.0,508.0,508.0,510.0,511.0,510.0,506.0,515.0,515.0,507.0,498.0,504.0,503.0,504.0,509.0,510.0,510.0,507.0,510.0,508.0,506.0,530.0,513.0,495.0,518.0,526.0,530.0,488.0,483.0,533.0,536.0,519.0,517.0,495.0,513.0,493.0,503.0,480.0,504.0,550.0,510.0,508.0,496.0,502.0,519.0,518.0,518.0,515.0,529.0,497.0,502.0,505.0,507.0,509.0,520.0,511.0,520.0,509.0,510.0,507.0,492.0
0,17.0,81.0,37.0,515.0,550.0,529.0,508.03333333333336,512.5333333333333,509.3,506.0,501.0,494.0,498.0,480.0,492.0,508.0,510.0,511.0,510.0,506.0,515.0,515.0,507.0,498.0,504.0,503.0,504.0,509.0,510.0,510.0,507.0,510.0,508.0,506.0,506.0,513.0,495.0,518.0,526.0,530.0,488.0,483.0,533.0,536.0,519.0,517.0,495.0,513.0,493.0,503.0,480.0,504.0,550.0,510.0,501.0,496.0,502.0,519.0,518.0,518.0,515.0,529.0,497.0,502.0,505.0,507.0,509.0,520.0,511.0,520.0,509.0,510.0,507.0,492.0,494.0
0,17.0,81.0,37.0,515.0,550.0,529.0,508.1,512.7666666666667,509.03333333333336,505.0,483.0,498.0,498.0,480.0,492.0,510.0,511.0,510.0,506.0,515.0,515.0,507.0,498.0,504.0,503.0,504.0,509.0,510.0,510.0,507.0,510.0,508.0,506.0,506.0,505.0,495.0,518.0,526.0,530.0,488.0,483.0,533.0,536.0,519.0,517.0,495.0,513.0,493.0,503.0,480.0,504.0,550.0,510.0,501.0,483.0,502.0,519.0,518.0,518.0,515.0,529.0,497.0,502.0,505.0,507.0,509.0,520.0,511.0,520.0,509.0,510.0,507.0,492.0,494.0,498.0
0,17.0,81.0,37.0,515.0,550.0,529.0,508.3333333333333,513.5333333333333,509.23333333333335,511.0,529.0,515.0,498.0,480.0,492.0,511.0,510.0,506.0,515.0,515.0,507.0,498.0,504.0,503.0,504.0,509.0,510.0,510.0,507.0,510.0,508.0,506.0,506.0,505.0,511.0,518.0,526.0,530.0,488.0,483.0,533.0,536.0,519.0,517.0,495.0,513.0,493.0,503.0,480.0,504.0,550.0,510.0,501.0,483.0,529.0,519.0,518.0,518.0,515.0,529.0,497.0,502.0,505.0,507.0,509.0,520.0,511.0,520.0,509.0,510.0,507.0,492.0,494.0,498.0,515.0
0,17.0,81.0,37.0,515.0,550.0,529.0,507.96666666666664,514.2333333333333,508.9,500.0,540.0,506.0,498.0,480.0,492.0,510.0,506.0,515.0,515.0,507.0,498.0,504.0,503.0,504.0,509.0,510.0,510.0,507.0,510.0,508.0,506.0,506.0,505.0,511.0,500.0,526.0,530.0,488.0,483.0,533.0,536.0,519.0,517.0,495.0,513.0,493.0,503.0,480.0,504.0,550.0,510.0,501.0,483.0,529.0,540.0,518.0,518.0,515.0,529.0,497.0,502.0,505.0,507.0,509.0,520.0,511.0,520.0,509.0,510.0,507.0,492.0,494.0,498.0,515.0,506.0
0,17.0,81.0,38.0,515.0,550.0,530.0,507.76666666666665,513.5666666666667,509.3666666666667,507.0,521.0,530.0,498.0,480.0,492.0,506.0,515.0,515.0,507.0,498.0,504.0,503.0,504.0,509.0,510.0,510.0,507.0,510.0,508.0,506.0,506.0,505.0,511.0,500.0,507.0,530.0,488.0,483.0,533.0,536.0,519.0,517.0,495.0,513.0,493.0,503.0,480.0,504.0,550.0,510.0,501.0,483.0,529.0,540.0,521.0,518.0,515.0,529.0,497.0,502.0,505.0,507.0,509.0,520.0,511.0,520.0,509.0,510.0,507.0,492.0,494.0,498.0,515.0,506.0,530.0
0,20.0,81.0,38.0,518.0,550.0,530.0,508.06666666666666,512.0666666666667,509.23333333333335,518.0,500.0,523.0,498.0,480.0,492.0,515.0,515.0,507.0,498.0,504.0,503.0,504.0,509.0,510.0,510.0,507.0,510.0,508.0,506.0,506.0,505.0,511.0,500.0,507.0,518.0,488.0,483.0,533.0,536.0,519.0,517.0,495.0,513.0,493.0,503.0,480.0,504.0,550.0,510.0,501.0,483.0,529.0,540.0,521.0,500.0,515.0,529.0,497.0,502.0,505.0,507.0,509.0,520.0,511.0,520.0,509.0,510.0,507.0,492.0,494.0,498.0,515.0,506.0,530.0,523.0
0,20.0,81.0,38.0,518.0,550.0,530.0,508.03333333333336,511.7,508.76666666666665,510.0,510.0,500.0,498.0,480.0,492.0,515.0,507.0,498.0,504.0,503.0,504.0,509.0,510.0,510.0,507.0,510.0,508.0,506.0,506.0,505.0,511.0,500.0,507.0,518.0,510.0,483.0,533.0,536.0,519.0,517.0,495.0,513.0,493.0,503.0,480.0,504.0,550.0,510.0,501.0,483.0,529.0,540.0,521.0,500.0,510.0,529.0,497.0,502.0,505.0,507.0,509.0,520.0,511.0,520.0,509.0,510.0,507.0,492.0,494.0,498.0,515.0,506.0,530.0,523.0,500.0
0,20.0,70.0,38.0,518.0,550.0,530.0,508.03333333333336,514.3666666666667,508.8666666666667,507.0,549.0,507.0,498.0,480.0,492.0,507.0,498.0,504.0,503.0,504.0,509.0,510.0,510.0,507.0,510.0,508.0,506.0,506.0,505.0,511.0,500.0,507.0,518.0,510.0,507.0,533.0,536.0,519.0,517.0,495.0,513.0,493.0,503.0,480.0,504.0,550.0,510.0,501.0,483.0,529.0,540.0,521.0,500.0,510.0,549.0,497.0,502.0,505.0,507.0,509.0,520.0,511.0,520.0,509.0,510.0,507.0,492.0,494.0,498.0,515.0,506.0,530.0,523.0,500.0,507.0
0,20.0,70.0,38.0,518.0,550.0,530.0,507.96666666666664,513.7666666666667,508.53333333333336,508.0,512.0,497.0,498.0,480.0,492.0,498.0,504.0,503.0,504.0,509.0,510.0,510.0,507.0,510.0,508.0,506.0,506.0,505.0,511.0,500.0,507.0,518.0,510.0,507.0,508.0,536.0,519.0,517.0,495.0,513.0,493.0,503.0,480.0,504.0,550.0,510.0,501.0,483.0,529.0,540.0,521.0,500.0,510.0,549.0,512.0,502.0,505.0,507.0,509.0,520.0,511.0,520.0,509.0,510.0,507.0,492.0,494.0,498.0,515.0,506.0,530.0,523.0,500.0,507.0,497.0
0,20.0,70.0,38.0,518.0,550.0,530.0,507.9,512.3666666666667,508.93333333333334,506.0,490.0,504.0,500.0,480.0,492.0,504.0,503.0,504.0,509.0,510.0,510.0,507.0,510.0,508.0,506.0,506.0,505.0,511.0,500.0,507.0,518.0,510.0,507.0,508.0,506.0,519.0,517.0,495.0,513.0,493.0,503.0,480.0,504.0,550.0,510.0,501.0,483.0,529.0,540.0,521.0,500.0,510.0,549.0,512.0,490.0,505.0,507.0,509.0,520.0,511.0,520.0,509.0,510.0,507.0,492.0,494.0,498.0,515.0,506.0,530.0,523.0,500.0,507.0,497.0,504.0
0,20.0,70.0,38.0,518.0,550.0,530.0,507.9,511.93333333333334,509.06666666666666,508.0,517.0,512.0,500.0,480.0,492.0,503.0,504.0,509.0,510.0,510.0,507.0,510.0,508.0,506.0,506.0,505.0,511.0,500.0,507.0,518.0,510.0,507.0,508.0,506.0,508.0,517.0,495.0,513.0,493.0,503.0,480.0,504.0,550.0,510.0,501.0,483.0,529.0,540.0,521.0,500.0,510.0,549.0,512.0,490.0,517.0,507.0,509.0,520.0,511.0,520.0,509.0,510.0,507.0,492.0,494.0,498.0,515.0,506.0,530.0,523.0,500.0,507.0,497.0,504.0,512.0
0,20.0,70.0,38.0,518.0,550.0,530.0,508.06666666666666,511.6,509.8333333333333,513.0,503.0,519.0,500.0,480.0,492.0,504.0,509.0,510.0,510.0,507.0,510.0,508.0,506.0,506.0,505.0,511.0,500.0,507.0,518.0,510.0,507.0,508.0,506.0,508.0,513.0,495.0,513.0,493.0,503.0,480.0,504.0,550.0,510.0,501.0,483.0,529.0,540.0,521.0,500.0,510.0,549.0,512.0,490.0,517.0,503.0,509.0,520.0,511.0,520.0,509.0,510.0,507.0,492.0,494.0,498.0,515.0,506.0,530.0,523.0,500.0,507.0,497.0,504.0,512.0,519.0
0,20.0,70.0,38.0,518.0,550.0,530.0,507.93333333333334,511.6666666666667,510.43333333333334,506.0,497.0,520.0,500.0,480.0,492.0,509.0,510.0,510.0,507.0,510.0,508.0,506.0,506.0,505.0,511.0,500.0,507.0,518.0,510.0,507.0,508.0,506.0,508.0,513.0,506.0,513.0,493.0,503.0,480.0,504.0,550.0,510.0,501.0,483.0,529.0,540.0,521.0,500.0,510.0,549.0,512.0,490.0,517.0,503.0,497.0,520.0,511.0,520.0,509.0,510.0,507.0,492.0,494.0,498.0,515.0,506.0,530.0,523.0,500.0,507.0,497.0,504.0,512.0,519.0,520.0
0,20.0,70.0,38.0,518.0,550.0,530.0,507.96666666666664,510.43333333333334,509.96666666666664,512.0,481.0,505.0,500.0,480.0,492.0,510.0,510.0,507.0,510.0,508.0,506.0,506.0,505.0,511.0,500.0,507.0,518.0,510.0,507.0,508.0,506.0,508.0,513.0,506.0,512.0,493.0,503.0,480.0,504.0,550.0,510.0,501.0,483.0,529.0,540.0,521.0,500.0,510.0,549.0,512.0,490.0,517.0,503.0,497.0,481.0,511.0,520.0,509.0,510.0,507.0,492.0,494.0,498.0,515.0,506.0,530.0,523.0,500.0,507.0,497.0,504.0,512.0,519.0,520.0,505.0
0,20.0,70.0,38.0,518.0,550.0,530.0,508.0,509.26666666666665,509.8333333333333,511.0,491.0,514.0,500.0,480.0,492.0,510.0,507.0,510.0,508.0,506.0,506.0,505.0,511.0,500.0,507.0,518.0,510.0,507.0,508.0,506.0,508.0,513.0,506.0,512.0,511.0,503.0,480.0,504.0,550.0,510.0,501.0,483.0,529.0,540.0,521.0,500.0,510.0,549.0,512.0,490.0,517.0,503.0,497.0,481.0,491.0,520.0,509.0,510.0,507.0,492.0,494.0,498.0,515.0,506.0,530.0,523.0,500.0,507.0,497.0,504.0,512.0,519.0,520.0,505.0,514.0
0,20.0,70.0,38.0,518.0,550.0,530.0,508.06666666666666,509.7,509.6333333333333,508.0,543.0,512.0,500.0,480.0,492.0,507.0,510.0,508.0,506.0,506.0,505.0,511.0,500.0,507.0,518.0,510.0,507.0,508.0,506.0,508.0,513.0,506.0,512.0,511.0,508.0,480.0,504.0,550.0,510.0,501.0,483.0,529.0,540.0,521.0,500.0,510.0,549.0,512.0,490.0,517.0,503.0,497.0,481.0,491.0,543.0,509.0,510.0,507.0,492.0,494.0,498.0,515.0,506.0,530.0,523.0,500.0,507.0,497.0,504.0,512.0,519.0,520.0,505.0,514.0,512.0
0,20.0,70.0,38.0,518.0,550.0,530.0,507.8666666666667,510.8333333333333,508.96666666666664,509.0,522.0,495.0,500.0,481.0,492.0,510.0,508.0,506.0,506.0,505.0,511.0,500.0,507.0,518.0,510.0,507.0,508.0,506.0,508.0,513.0,506.0,512.0,511.0,508.0,509.0,504.0,550.0,510.0,501.0,483.0,529.0,540.0,521.0,500.0,510.0,549.0,512.0,490.0,517.0,503.0,497.0,481.0,491.0,543.0,522.0,510.0,507.0,492.0,494.0,498.0,515.0,506.0,530.0,523.0,500.0,507.0,497.0,504.0,512.0,519.0,520.0,505.0,514.0,512.0,495.0
0,20.0,70.0,38.0,518.0,550.0,530.0,507.46666666666664,511.2,508.1666666666667,503.0,494.0,505.0,500.0,481.0,492.0,508.0,506.0,506.0,505.0,511.0,500.0,507.0,518.0,510.0,507.0,508.0,506.0,508.0,513.0,506.0,512.0,511.0,508.0,509.0,503.0,550.0,510.0,501.0,483.0,529.0,540.0,521.0,500.0,510.0,549.0,512.0,490.0,517.0,503.0,497.0,481.0,491.0,543.0,522.0,494.0,507.0,492.0,494.0,498.0,515.0,506.0,530.0,523.0,500.0,507.0,497.0,504.0,512.0,519.0,520.0,505.0,514.0,512.0,495.0,505.0
0,20.0,70.0,38.0,518.0,549.0,530.0,507.3666666666667,510.0,508.7,504.0,497.0,513.0,500.0,481.0,492.0,506.0,506.0,505.0,511.0,500.0,507.0,518.0,510.0,507.0,508.0,506.0,508.0,513.0,506.0,512.0,511.0,508.0,509.0,503.0,504.0,510.0,501.0,483.0,529.0,540.0,521.0,500.0,510.0,549.0,512.0,490.0,517.0,503.0,497.0,481.0,491.0,543.0,522.0,494.0,497.0,492.0,494.0,498.0,515.0,506.0,530.0,523.0,500.0,507.0,497.0,504.0,512.0,519.0,520.0,505.0,514.0,512.0,495.0,505.0,513.0
0,18.0,70.0,38.0,518.0,549.0,530.0,507.73333333333335,508.96666666666664,509.3,509.0,505.0,520.0,500.0,481.0,494.0,506.0,505.0,511.0,500.0,507.0,518.0,510.0,507.0,508.0,506.0,508.0,513.0,506.0,512.0,511.0,508.0,509.0,503.0,504.0,509.0,501.0,483.0,529.0,540.0,521.0,500.0,510.0,549.0,512.0,490.0,517.0,503.0,497.0,481.0,491.0,543.0,522.0,494.0,497.0,505.0,494.0,498.0,515.0,506.0,530.0,523.0,500.0,507.0,497.0,504.0,512.0,519.0,520.0,505.0,514.0,512.0,495.0,505.0,513.0,520.0
0,18.0,70.0,38.0,518.0,549.0,530.0,507.8333333333333,508.93333333333334,509.93333333333334,507.0,518.0,524.0,500.0,481.0,495.0,505.0,511.0,500.0,507.0,518.0,510.0,507.0,508.0,506.0,508.0,513.0,506.0,512.0,511.0,508.0,509.0,503.0,504.0,509.0,507.0,483.0,529.0,540.0,521.0,500.0,510.0,549.0,512.0,490.0,517.0,503.0,497.0,481.0,491.0,543.0,522.0,494.0,497.0,505.0,518.0,498.0,515.0,506.0,530.0,523.0,500.0,507.0,497.0,504.0,512.0,519.0,520.0,505.0,514.0,512.0,495.0,505.0,513.0,520.0,524.0
0,18.0,70.0,40.0,518.0,549.0,532.0,507.8666666666667,507.8666666666667,510.76666666666665,504.0,485.0,532.0,500.0,481.0,495.0,511.0,500.0,507.0,518.0,510.0,507.0,508.0,506.0,508.0,513.0,506.0,512.0,511.0,508.0,509.0,503.0,504.0,509.0,507.0,504.0,529.0,540.0,521.0,500.0,510.0,549.0,512.0,490.0,517.0,503.0,497.0,481.0,491.0,543.0,522.0,494.0,497.0,505.0,518.0,485.0,515.0,506.0,530.0,523.0,500.0,507.0,497.0,504.0,512.0,519.0,520.0,505.0,514.0,512.0,495.0,505.0,513.0,520.0,524.0,532.0
0,18.0,75.0,40.0,518.0,549.0,532.0,507.93333333333334,507.2,510.93333333333334,506.0,475.0,514.0,500.0,475.0,495.0,500.0,507.0,518.0,510.0,507.0,508.0,506.0,508.0,513.0,506.0,512.0,511.0,508.0,509.0,503.0,504.0,509.0,507.0,504.0,506.0,540.0,521.0,500.0,510.0,549.0,512.0,490.0,517.0,503.0,497.0,481.0,491.0,543.0,522.0,494.0,497.0,505.0,518.0,485.0,475.0,506.0,530.0,523.0,500.0,507.0,497.0,504.0,512.0,519.0,520.0,505.0,514.0,512.0,495.0,505.0,513.0,520.0,524.0,532.0,514.0
0,18.0,75.0,47.0,518.0,549.0,532.0,507.8333333333333,508.23333333333335,509.76666666666665,506.0,544.0,485.0,503.0,475.0,485.0,507.0,518.0,510.0,507.0,508.0,506.0,508.0,513.0,506.0,512.0,511.0,508.0,509.0,503.0,504.0,509.0,507.0,504.0,506.0,506.0,521.0,500.0,510.0,549.0,512.0,490.0,517.0,503.0,497.0,481.0,491.0,543.0,522.0,494.0,497.0,505.0,518.0,485.0,475.0,544.0,530.0,523.0,500.0,507.0,497.0,504.0,512.0,519.0,520.0,505.0,514.0,512.0,495.0,505.0,513.0,520.0,524.0,532.0,514.0,485.0
0,18.0,108.0,62.0,518.0,583.0,532.0,507.73333333333335,511.23333333333335,508.4,507.0,583.0,470.0,503.0,475.0,470.0,518.0,510.0,507.0,508.0,506.0,508.0,513.0,506.0,512.0,511.0,508.0,509.0,503.0,504.0,509.0,507.0,504.0,506.0,506.0,507.0,500.0,510.0,549.0,512.0,490.0,517.0,503.0,497.0,481.0,491.0,543.0,522.0,494.0,497.0,505.0,518.0,485.0,475.0,544.0,583.0,523.0,500.0,507.0,497.0,504.0,512.0,519.0,520.0,505.0,514.0,512.0,495.0,505.0,513.0,520.0,524.0,532.0,514.0,485.0,470.0
0,18.0,108.0,62.0,513.0,583.0,532.0,507.6333333333333,512.8333333333334,507.06666666666666,507.0,551.0,480.0,503.0,475.0,470.0,510.0,507.0,508.0,506.0,508.0,513.0,506.0,512.0,511.0,508.0,509.0,503.0,504.0,509.0,507.0,504.0,506.0,506.0,507.0,507.0,510.0,549.0,512.0,490.0,517.0,503.0,497.0,481.0,491.0,543.0,522.0,494.0,497.0,505.0,518.0,485.0,475.0,544.0,583.0,551.0,500.0,507.0,497.0,504.0,512.0,519.0,520.0,505.0,514.0,512.0,495.0,505.0,513.0,520.0,524.0,532.0,514.0,485.0,470.0,480.0
0,18.0,108.0,62.0,513.0,583.0,532.0,507.5,513.6666666666666,506.6333333333333,503.0,505.0,496.0,503.0,475.0,470.0,507.0,508.0,506.0,508.0,513.0,506.0,512.0,511.0,508.0,509.0,503.0,504.0,509.0,507.0,504.0,506.0,506.0,507.0,507.0,503.0,549.0,512.0,490.0,517.0,503.0,497.0,481.0,491.0,543.0,522.0,494.0,497.0,505.0,518.0,485.0,475.0,544.0,583.0,551.0,505.0,507.0,497.0,504.0,512.0,519.0,520.0,505.0,514.0,512.0,495.0,505.0,513.0,520.0,524.0,532.0,514.0,485.0,470.0,480.0,496.0
0,18.0,108.0,62.0,513.0,583.0,532.0,507.4,513.9,506.56666666666666,507.0,511.0,508.0,503.0,475.0,470.0,508.0,506.0,508.0,513.0,506.0,512.0,511.0,508.0,509.0,503.0,504.0,509.0,507.0,504.0,506.0,506.0,507.0,507.0,503.0,507.0,512.0,490.0,517.0,503.0,497.0,481.0,491.0,543.0,522.0,494.0,497.0,505.0,518.0,485.0,475.0,544.0,583.0,551.0,505.0,511.0,497.0,504.0,512.0,519.0,520.0,505.0,514.0,512.0,495.0,505.0,513.0,520.0,524.0,532.0,514.0,485.0,470.0,480.0,496.0,508.0
0,18.0,108.0,62.0,513.0,583.0,532.0,507.4,513.4666666666667,506.6666666666667,508.0,537.0,510.0,503.0,475.0,470.0,506.0,508.0,513.0,506.0,512.0,511.0,508.0,509.0,503.0,504.0,509.0,507.0,504.0,506.0,506.0,507.0,507.0,503.0,507.0,508.0,490.0,517.0,503.0,497.0,481.0,491.0,543.0,522.0,494.0,497.0,505.0,518.0,485.0,475.0,544.0,583.0,551.0,505.0,511.0,537.0,504.0,512.0,519.0,520.0,505.0,514.0,512.0,495.0,505.0,513.0,520.0,524.0,532.0,514.0,485.0,470.0,480.0,496.0,508.0,510.0
0,18.0,108.0,64.0,513.0,583.0,534.0,507.53333333333336,514.0,508.06666666666666,510.0,526.0,534.0,503.0,475.0,470.0,508.0,513.0,506.0,512.0,511.0,508.0,509.0,503.0,504.0,509.0,507.0,504.0,506.0,506.0,507.0,507.0,503.0,507.0,508.0,510.0,517.0,503.0,497.0,481.0,491.0,543.0,522.0,494.0,497.0,505.0,518.0,485.0,475.0,544.0,583.0,551.0,505.0,511.0,537.0,526.0,512.0,519.0,520.0,505.0,514.0,512.0,495.0,505.0,513.0,520.0,524.0,532.0,514.0,485.0,470.0,480.0,496.0,508.0,510.0,534.0
0,18.0,108.0,64.0,513.0,583.0,534.0,507.76666666666665,514.1,508.8,513.0,504.0,516.0,503.0,475.0,470.0,513.0,506.0,512.0,511.0,508.0,509.0,503.0,504.0,509.0,507.0,504.0,506.0,506.0,507.0,507.0,503.0,507.0,508.0,510.0,513.0,503.0,497.0,481.0,491.0,543.0,522.0,494.0,497.0,505.0,518.0,485.0,475.0,544.0,583.0,551.0,505.0,511.0,537.0,526.0,504.0,519.0,520.0,505.0,514.0,512.0,495.0,505.0,513.0,520.0,524.0,532.0,514.0,485.0,470.0,480.0,496.0,508.0,510.0,534.0,516.0
0,18.0,120.0,64.0,513.0,583.0,534.0,507.9,513.4333333333333,509.43333333333334,509.0,463.0,517.0,503.0,463.0,470.0,506.0,512.0,511.0,508.0,509.0,503.0,504.0,509.0,507.0,504.0,506.0,506.0,507.0,507.0,503.0,507.0,508.0,510.0,513.0,509.0,497.0,481.0,491.0,543.0,522.0,494.0,497.0,505.0,518.0,485.0,475.0,544.0,583.0,551.0,505.0,511.0,537.0,526.0,504.0,463.0,520.0,505.0,514.0,512.0,495.0,505.0,513.0,520.0,524.0,532.0,514.0,485.0,470.0,480.0,496.0,508.0,510.0,534.0,516.0,517.0
0,18.0,120.0,64.0,513.0,583.0,534.0,507.76666666666665,511.3333333333333,509.3,507.0,466.0,511.0,503.0,463.0,470.0,512.0,511.0,508.0,509.0,503.0,504.0,509.0,507.0,504.0,506.0,506.0,507.0,507.0,503.0,507.0,508.0,510.0,513.0,509.0,507.0,481.0,491.0,543.0,522.0,494.0,497.0,505.0,518.0,485.0,475.0,544.0,583.0,551.0,505.0,511.0,537.0,526.0,504.0,463.0,466.0,505.0,514.0,512.0,495.0,505.0,513.0,520.0,524.0,532.0,514.0,485.0,470.0,480.0,496.0,508.0,510.0,534.0,516.0,517.0,511.0
0,15.0,120.0,64.0,513.0,583.0,534.0,508.1333333333333,511.23333333333335,509.56666666666666,511.0,537.0,514.0,503.0,463.0,470.0,511.0,508.0,509.0,503.0,504.0,509.0,507.0,504.0,506.0,506.0,507.0,507.0,503.0,507.0,508.0,510.0,513.0,509.0,507.0,511.0,491.0,543.0,522.0,494.0,497.0,505.0,518.0,485.0,475.0,544.0,583.0,551.0,505.0,511.0,537.0,526.0,504.0,463.0,466.0,537.0,514.0,512.0,495.0,505.0,513.0,520.0,524.0,532.0,514.0,485.0,470.0,480.0,496.0,508.0,510.0,534.0,516.0,517.0,511.0,514.0
0,15.0,120.0,64.0,513.0,583.0,534.0,508.3,511.96666666666664,508.53333333333336,512.0,543.0,499.0,503.0,463.0,470.0,508.0,509.0,503.0,504.0,509.0,507.0,504.0,506.0,506.0,507.0,507.0,503.0,507.0,508.0,510.0,513.0,509.0,507.0,511.0,512.0,543.0,522.0,494.0,497.0,505.0,518.0,485.0,475.0,544.0,583.0,551.0,505.0,511.0,537.0,526.0,504.0,463.0,466.0,537.0,543.0,512.0,495.0,505.0,513.0,520.0,524.0,532.0,514.0,485.0,470.0,480.0,496.0,508.0,510.0,534.0,516.0,517.0,511.0,514.0,499.0
0,10.0,120.0,64.0,513.0,583.0,534.0,507.96666666666664,511.8333333333333,508.03333333333336,508.0,496.0,508.0,503.0,463.0,470.0,509.0,503.0,504.0,509.0,507.0,504.0,506.0,506.0,507.0,507.0,503.0,507.0,508.0,510.0,513.0,509.0,507.0,511.0,512.0,508.0,522.0,494.0,497.0,505.0,518.0,485.0,475.0,544.0,583.0,551.0,505.0,511.0,537.0,526.0,504.0,463.0,466.0,537.0,543.0,496.0,495.0,505.0,513.0,520.0,524.0,532.0,514.0,485.0,470.0,480.0,496.0,508.0,510.0,534.0,516.0,517.0,511.0,514.0,499.0,508.0
0,10.0,120.0,64.0,513.0,583.0,534.0,507.76666666666665,511.43333333333334,508.23333333333335,504.0,498.0,506.0,503.0,463.0,470.0,503.0,504.0,509.0,507.0,504.0,506.0,506.0,507.0,507.0,503.0,507.0,508.0,510.0,513.0,509.0,507.0,511.0,512.0,508.0,504.0,494.0,497.0,505.0,518.0,485.0,475.0,544.0,583.0,551.0,505.0,511.0,537.0,526.0,504.0,463.0,466.0,537.0,543.0,496.0,498.0,505.0,513.0,520.0,524.0,532.0,514.0,485.0,470.0,480.0,496.0,508.0,510.0,534.0,516.0,517.0,511.0,514.0,499.0,508.0,506.0
0,10.0,120.0,64.0,513.0,583.0,534.0,507.9,509.26666666666665,508.03333333333336,511.0,484.0,501.0,503.0,463.0,470.0,504.0,509.0,507.0,504.0,506.0,506.0,507.0,507.0,503.0,507.0,508.0,510.0,513.0,509.0,507.0,511.0,512.0,508.0,504.0,511.0,497.0,505.0,518.0,485.0,475.0,544.0,583.0,551.0,505.0,511.0,537.0,526.0,504.0,463.0,466.0,537.0,543.0,496.0,498.0,484.0,513.0,520.0,524.0,532.0,514.0,485.0,470.0,480.0,496.0,508.0,510.0,534.0,516.0,517.0,511.0,514.0,499.0,508.0,506.0,501.0
0,10.0,120.0,64.0,513.0,583.0,534.0,508.03333333333336,509.03333333333336,508.8666666666667,512.0,505.0,522.0,503.0,463.0,470.0,509.0,507.0,504.0,506.0,506.0,507.0,507.0,503.0,507.0,508.0,510.0,513.0,509.0,507.0,511.0,512.0,508.0,504.0,511.0,512.0,505.0,518.0,485.0,475.0,544.0,583.0,551.0,505.0,511.0,537.0,526.0,504.0,463.0,466.0,537.0,543.0,496.0,498.0,484.0,505.0,520.0,524.0,532.0,514.0,485.0,470.0,480.0,496.0,508.0,510.0,534.0,516.0,517.0,511.0,514.0,499.0,508.0,506.0,501.0,522.0
0,10.0,120.0,64.0,513.0,583.0,534.0,508.1666666666667,510.8,509.53333333333336,510.0,543.0,524.0,503.0,463.0,470.0,507.0,504.0,506.0,506.0,507.0,507.0,503.0,507.0,508.0,510.0,513.0,509.0,507.0,511.0,512.0,508.0,504.0,511.0,512.0,510.0,518.0,485.0,475.0,544.0,583.0,551.0,505.0,511.0,537.0,526.0,504.0,463.0,466.0,537.0,543.0,496.0,498.0,484.0,505.0,543.0,524.0,532.0,514.0,485.0,470.0,480.0,496.0,508.0,510.0,534.0,516.0,517.0,511.0,514.0,499.0,508.0,506.0,501.0,522.0,524.0
0,10.0,134.0,64.0,513.0,583.0,534.0,508.3,508.53333333333336,509.76666666666665,512.0,449.0,519.0,503.0,449.0,470.0,504.0,506.0,506.0,507.0,507.0,503.0,507.0,508.0,510.0,513.0,509.0,507.0,511.0,512.0,508.0,504.0,511.0,512.0,510.0,512.0,485.0,475.0,544.0,583.0,551.0,505.0,511.0,537.0,526.0,504.0,463.0,466.0,537.0,543.0,496.0,498.0,484.0,505.0,543.0,449.0,532.0,514.0,485.0,470.0,480.0,496.0,508.0,510.0,534.0,516.0,517.0,511.0,514.0,499.0,508.0,506.0,501.0,522.0,524.0,519.0
0,10.0,134.0,64.0,513.0,583.0,534.0,508.1,507.43333333333334,509.6,507.0,470.0,514.0,503.0,449.0,470.0,506.0,506.0,507.0,507.0,503.0,507.0,508.0,510.0,513.0,509.0,507.0,511.0,512.0,508.0,504.0,511.0,512.0,510.0,512.0,507.0,475.0,544.0,583.0,551.0,505.0,511.0,537.0,526.0,504.0,463.0,466.0,537.0,543.0,496.0,498.0,484.0,505.0,543.0,449.0,470.0,514.0,485.0,470.0,480.0,496.0,508.0,510.0,534.0,516.0,517.0,511.0,514.0,499.0,508.0,506.0,501.0,522.0,524.0,519.0,514.0
0,10.0,134.0,64.0,513.0,583.0,534.0,508.1666666666667,508.26666666666665,509.1,508.0,522.0,505.0,503.0,449.0,470.0,506.0,507.0,507.0,503.0,507.0,508.0,510.0,513.0,509.0,507.0,511.0,512.0,508.0,504.0,511.0,512.0,510.0,512.0,507.0,508.0,544.0,583.0,551.0,505.0,511.0,537.0,526.0,504.0,463.0,466.0,537.0,543.0,496.0,498.0,484.0,505.0,543.0,449.0,470.0,522.0,485.0,470.0,480.0,496.0,508.0,510.0,534.0,516.0,517.0,511.0,514.0,499.0,508.0,506.0,501.0,522.0,524.0,519.0,514.0,505.0
0,10.0,134.0,64.0,513.0,583.0,534.0,508.1,510.93333333333334,509.0,510.0,561.0,502.0,503.0,449.0,470.0,507.0,507.0,503.0,507.0,508.0,510.0,513.0,509.0,507.0,511.0,512.0,508.0,504.0,511.0,512.0,510.0,512.0,507.0,508.0,510.0,583.0,551.0,505.0,511.0,537.0,526.0,504.0,463.0,466.0,537.0,543.0,496.0,498.0,484.0,505.0,543.0,449.0,470.0,522.0,561.0,470.0,480.0,496.0,508.0,510.0,534.0,516.0,517.0,511.0,514.0,499.0,508.0,506.0,501.0,522.0,524.0,519.0,514.0,505.0,502.0
0,10.0,134.0,64.0,513.0,561.0,534.0,507.96666666666664,512.4,508.56666666666666,507.0,535.0,501.0,503.0,449.0,480.0,507.0,503.0,507.0,508.0,510.0,513.0,509.0,507.0,511.0,512.0,508.0,504.0,511.0,512.0,510.0,512.0,507.0,508.0,510.0,507.0,551.0,505.0,511.0,537.0,526.0,504.0,463.0,466.0,537.0,543.0,496.0,498.0,484.0,505.0,543.0,449.0,470.0,522.0,561.0,535.0,480.0,496.0,508.0,510.0,534.0,516.0,517.0,511.0,514.0,499.0,508.0,506.0,501.0,522.0,524.0,519.0,514.0,505.0,502.0,501.0
0,10.0,134.0,64.0,513.0,561.0,534.0,507.93333333333334,511.1,508.1333333333333,507.0,504.0,499.0,503.0,449.0,496.0,503.0,507.0,508.0,510.0,513.0,509.0,507.0,511.0,512.0,508.0,504.0,511.0,512.0,510.0,512.0,507.0,508.0,510.0,507.0,507.0,505.0,511.0,537.0,526.0,504.0,463.0,466.0,537.0,543.0,496.0,498.0,484.0,505.0,543.0,449.0,470.0,522.0,561.0,535.0,504.0,496.0,508.0,510.0,534.0,516.0,517.0,511.0,514.0,499.0,508.0,506.0,501.0,522.0,524.0,519.0,514.0,505.0,502.0,501.0,499.0
0,10.0,134.0,64.0,513.0,561.0,534.0,507.8333333333333,510.2,508.4,506.0,495.0,503.0,504.0,449.0,499.0,507.0,508.0,510.0,513.0,509.0,507.0,511.0,512.0,508.0,504.0,511.0,512.0,510.0,512.0,507.0,508.0,510.0,507.0,507.0,506.0,511.0,537.0,526.0,504.0,463.0,466.0,537.0,543.0,496.0,498.0,484.0,505.0,543.0,449.0,470.0,522.0,561.0,535.0,504.0,495.0,508.0,510.0,534.0,516.0,517.0,511.0,514.0,499.0,508.0,506.0,501.0,522.0,524.0,519.0,514.0,505.0,502.0,501.0,499.0,503.0
0,10.0,134.0,64.0,513.0,561.0,534.0,508.06666666666666,510.96666666666664,508.93333333333334,510.0,517.0,521.0,504.0,449.0,499.0,508.0,510.0,513.0,509.0,507.0,511.0,512.0,508.0,504.0,511.0,512.0,510.0,512.0,507.0,508.0,510.0,507.0,507.0,506.0,510.0,537.0,526.0,504.0,463.0,466.0,537.0,543.0,496.0,498.0,484.0,505.0,543.0,449.0,470.0,522.0,561.0,535.0,504.0,495.0,517.0,510.0,534.0,516.0,517.0,511.0,514.0,499.0,508.0,506.0,501.0,522.0,524.0,519.0,514.0,505.0,502.0,501.0,499.0,503.0,521.0
0,10.0,134.0,64.0,513.0,561.0,534.0,508.26666666666665,512.7333333333333,509.2,510.0,550.0,521.0,504.0,449.0,499.0,510.0,513.0,509.0,507.0,511.0,512.0,508.0,504.0,511.0,512.0,510.0,512.0,507.0,508.0,510.0,507.0,507.0,506.0,510.0,510.0,526.0,504.0,463.0,466.0,537.0,543.0,496.0,498.0,484.0,505.0,543.0,449.0,470.0,522.0,561.0,535.0,504.0,495.0,517.0,550.0,534.0,516.0,517.0,511.0,514.0,499.0,508.0,506.0,501.0,522.0,524.0,519.0,514.0,505.0,502.0,501.0,499.0,503.0,521.0,521.0
0,10.0,134.0,64.0,513.0,561.0,524.0,508.23333333333335,511.7,509.06666666666666,508.0,474.0,516.0,504.0,449.0,499.0,513.0,509.0,507.0,511.0,512.0,508.0,504.0,511.0,512.0,510.0,512.0,507.0,508.0,510.0,507.0,507.0,506.0,510.0,510.0,508.0,504.0,463.0,466.0,537.0,543.0,496.0,498.0,484.0,505.0,543.0,449.0,470.0,522.0,561.0,535.0,504.0,495.0,517.0,550.0,474.0,516.0,517.0,511.0,514.0,499.0,508.0,506.0,501.0,522.0,524.0,519.0,514.0,505.0,502.0,501.0,499.0,503.0,521.0,521.0,516.0
0,10.0,134.0,64.0,512.0,561.0,524.0,508.3333333333333,509.96666666666664,508.8333333333333,510.0,466.0,517.0,504.0,449.0,499.0,509.0,507.0,511.0,512.0,508.0,504.0,511.0,512.0,510.0,512.0,507.0,508.0,510.0,507.0,507.0,506.0,510.0,510.0,508.0,510.0,463.0,466.0,537.0,543.0,496.0,498.0,484.0,505.0,543.0,449.0,470.0,522.0,561.0,535.0,504.0,495.0,517.0,550.0,474.0,466.0,517.0,511.0,514.0,499.0,508.0,506.0,501.0,522.0,524.0,519.0,514.0,505.0,502.0,501.0,499.0,503.0,521.0,521.0,516.0,517.0
0,10.0,134.0,64.0,512.0,561.0,524.0,508.56666666666666,510.03333333333336,507.73333333333335,511.0,487.0,499.0,504.0,449.0,499.0,507.0,511.0,512.0,508.0,504.0,511.0,512.0,510.0,512.0,507.0,508.0,510.0,507.0,507.0,506.0,510.0,510.0,508.0,510.0,511.0,466.0,537.0,543.0,496.0,498.0,484.0,505.0,543.0,449.0,470.0,522.0,561.0,535.0,504.0,495.0,517.0,550.0,474.0,466.0,487.0,511.0,514.0,499.0,508.0,506.0,501.0,522.0,524.0,519.0,514.0,505.0,502.0,501.0,499.0,503.0,521.0,521.0,516.0,517.0,499.0
0,10.0,134.0,64.0,512.0,561.0,525.0,508.6333333333333,511.1666666666667,508.1,508.0,509.0,525.0,504.0,449.0,499.0,511.0,512.0,508.0,504.0,511.0,512.0,510.0,512.0,507.0,508.0,510.0,507.0,507.0,506.0,510.0,510.0,508.0,510.0,511.0,508.0,537.0,543.0,496.0,498.0,484.0,505.0,543.0,449.0,470.0,522.0,561.0,535.0,504.0,495.0,517.0,550.0,474.0,466.0,487.0,509.0,514.0,499.0,508.0,506.0,501.0,522.0,524.0,519.0,514.0,505.0,502.0,501.0,499.0,503.0,521.0,521.0,516.0,517.0,499.0,525.0
0,10.0,134.0,64.0,512.0,561.0,525.0,508.8333333333333,511.1333333333333,508.4,512.0,543.0,494.0,504.0,449.0,494.0,512.0,508.0,504.0,511.0,512.0,510.0,512.0,507.0,508.0,510.0,507.0,507.0,506.0,510.0,510.0,508.0,510.0,511.0,508.0,512.0,543.0,496.0,498.0,484.0,505.0,543.0,449.0,470.0,522.0,561.0,535.0,504.0,495.0,517.0,550.0,474.0,466.0,487.0,509.0,543.0,499.0,508.0,506.0,501.0,522.0,524.0,519.0,514.0,505.0,502.0,501.0,499.0,503.0,521.0,521.0,516.0,517.0,499.0,525.0,494.0
0,10.0,112.0,54.0,512.0,561.0,525.0,508.96666666666664,510.1,509.5,511.0,552.0,503.0,504.0,449.0,494.0,508.0,504.0,511.0,512.0,510.0,512.0,507.0,508.0,510.0,507.0,507.0,506.0,510.0,510.0,508.0,510.0,511.0,508.0,512.0,511.0,496.0,498.0,484.0,505.0,543.0,449.0,470.0,522.0,561.0,535.0,504.0,495.0,517.0,550.0,474.0,466.0,487.0,509.0,543.0,552.0,508.0,506.0,501.0,522.0,524.0,519.0,514.0,505.0,502.0,501.0,499.0,503.0,521.0,521.0,516.0,517.0,499.0,525.0,494.0,503.0
0,10.0,112.0,40.0,512.0,561.0,525.0,509.06666666666666,508.76666666666665,510.8666666666667,510.0,511.0,521.0,504.0,449.0,494.0,504.0,511.0,512.0,510.0,512.0,507.0,508.0,510.0,507.0,507.0,506.0,510.0,510.0,508.0,510.0,511.0,508.0,512.0,511.0,510.0,498.0,484.0,505.0,543.0,449.0,470.0,522.0,561.0,535.0,504.0,495.0,517.0,550.0,474.0,466.0,487.0,509.0,543.0,552.0,511.0,506.0,501.0,522.0,524.0,519.0,514.0,505.0,502.0,501.0,499.0,503.0,521.0,521.0,516.0,517.0,499.0,525.0,494.0,503.0,521.0
0,10.0,112.0,40.0,512.0,561.0,525.0,509.06666666666666,508.43333333333334,511.1666666666667,503.0,495.0,505.0,503.0,449.0,494.0,511.0,512.0,510.0,512.0,507.0,508.0,510.0,507.0,507.0,506.0,510.0,510.0,508.0,510.0,511.0,508.0,512.0,511.0,510.0,503.0,484.0,505.0,543.0,449.0,470.0,522.0,561.0,535.0,504.0,495.0,517.0,550.0,474.0,466.0,487.0,509.0,543.0,552.0,511.0,495.0,501.0,522.0,524.0,519.0,514.0,505.0,502.0,501.0,499.0,503.0,521.0,521.0,516.0,517.0,499.0,525.0,494.0,503.0,521.0,505.0
0,10.0,112.0,40.0,513.0,561.0,525.0,509.26666666666665,509.26666666666665,511.53333333333336,513.0,536.0,519.0,503.0,449.0,494.0,512.0,510.0,512.0,507.0,508.0,510.0,507.0,507.0,506.0,510.0,510.0,508.0,510.0,511.0,508.0,512.0,511.0,510.0,503.0,513.0,505.0,543.0,449.0,470.0,522.0,561.0,535.0,504.0,495.0,517.0,550.0,474.0,466.0,487.0,509.0,543.0,552.0,511.0,495.0,536.0,522.0,524.0,519.0,514.0,505.0,502.0,501.0,499.0,503.0,521.0,521.0,516.0,517.0,499.0,525.0,494.0,503.0,521.0,505.0,519.0
0,10.0,112.0,40.0,513.0,561.0,525.0,509.3666666666667,507.76666666666665,511.6333333333333,511.0,492.0,513.0,503.0,449.0,494.0,510.0,512.0,507.0,508.0,510.0,507.0,507.0,506.0,510.0,510.0,508.0,510.0,511.0,508.0,512.0,511.0,510.0,503.0,513.0,511.0,543.0,449.0,470.0,522.0,561.0,535.0,504.0,495.0,517.0,550.0,474.0,466.0,487.0,509.0,543.0,552.0,511.0,495.0,536.0,492.0,524.0,519.0,514.0,505.0,502.0,501.0,499.0,503.0,521.0,521.0,516.0,517.0,499.0,525.0,494.0,503.0,521.0,505.0,519.0,513.0
0,10.0,112.0,31.0,513.0,561.0,525.0,509.3333333333333,506.23333333333335,510.6333333333333,509.0,480.0,504.0,503.0,449.0,494.0,512.0,507.0,508.0,510.0,507.0,507.0,506.0,510.0,510.0,508.0,510.0,511.0,508.0,512.0,511.0,510.0,503.0,513.0,511.0,509.0,449.0,470.0,522.0,561.0,535.0,504.0,495.0,517.0,550.0,474.0,466.0,487.0,509.0,543.0,552.0,511.0,495.0,536.0,492.0,480.0,519.0,514.0,505.0,502.0,501.0,499.0,503.0,521.0,521.0,516.0,517.0,499.0,525.0,494.0,503.0,521.0,505.0,519.0,513.0,504.0
0,10.0,112.0,31.0,513.0,561.0,525.0,509.23333333333335,505.8333333333333,510.3666666666667,510.0,492.0,508.0,503.0,466.0,494.0,507.0,508.0,510.0,507.0,507.0,506.0,510.0,510.0,508.0,510.0,511.0,508.0,512.0,511.0,510.0,503.0,513.0,511.0,509.0,510.0,470.0,522.0,561.0,535.0,504.0,495.0,517.0,550.0,474.0,466.0,487.0,509.0,543.0,552.0,511.0,495.0,536.0,492.0,480.0,492.0,514.0,505.0,502.0,501.0,499.0,503.0,521.0,521.0,516.0,517.0,499.0,525.0,494.0,503.0,521.0,505.0,519.0,513.0,504.0,508.0
0,10.0,112.0,31.0,513.0,561.0,525.0,509.26666666666665,508.6333333333333,510.06666666666666,510.0,547.0,508.0,503.0,466.0,494.0,508.0,510.0,507.0,507.0,506.0,510.0,510.0,508.0,510.0,511.0,508.0,512.0,511.0,510.0,503.0,513.0,511.0,509.0,510.0,510.0,522.0,561.0,535.0,504.0,495.0,517.0,550.0,474.0,466.0,487.0,509.0,543.0,552.0,511.0,495.0,536.0,492.0,480.0,492.0,547.0,505.0,502.0,501.0,499.0,503.0,521.0,521.0,516.0,517.0,499.0,525.0,494.0,503.0,521.0,505.0,519.0,513.0,504.0,508.0,508.0
0,10.0,126.0,31.0,513.0,575.0,525.0,509.3333333333333,512.2666666666667,509.8,509.0,575.0,503.0,503.0,466.0,494.0,510.0,507.0,507.0,506.0,510.0,510.0,508.0,510.0,511.0,508.0,512.0,511.0,510.0,503.0,513.0,511.0,509.0,510.0,510.0,509.0,561.0,535.0,504.0,495.0,517.0,550.0,474.0,466.0,487.0,509.0,543.0,552.0,511.0,495.0,536.0,492.0,480.0,492.0,547.0,575.0,502.0,501.0,499.0,503.0,521.0,521.0,516.0,517.0,499.0,525.0,494.0,503.0,521.0,505.0,519.0,513.0,504.0,508.0,508.0,503.0
0,10.0,126.0,31.0,513.0,575.0,525.0,509.1666666666667,510.6,509.26666666666665,506.0,487.0,498.0,503.0,466.0,494.0,507.0,507.0,506.0,510.0,510.0,508.0,510.0,511.0,508.0,512.0,511.0,510.0,503.0,513.0,511.0,509.0,510.0,510.0,509.0,506.0,535.0,504.0,495.0,517.0,550.0,474.0,466.0,487.0,509.0,543.0,552.0,511.0,495.0,536.0,492.0,480.0,492.0,547.0,575.0,487.0,501.0,499.0,503.0,521.0,521.0,516.0,517.0,499.0,525.0,494.0,503.0,521.0,505.0,519.0,513.0,504.0,508.0,508.0,503.0,498.0
0,10.0,126.0,41.0,513.0,575.0,525.0,509.03333333333336,508.7,508.76666666666665,508.0,486.0,484.0,503.0,466.0,484.0,507.0,506.0,510.0,510.0,508.0,510.0,511.0,508.0,512.0,511.0,510.0,503.0,513.0,511.0,509.0,510.0,510.0,509.0,506.0,508.0,504.0,495.0,517.0,550.0,474.0,466.0,487.0,509.0,543.0,552.0,511.0,495.0,536.0,492.0,480.0,492.0,547.0,575.0,487.0,486.0,499.0,503.0,521.0,521.0,516.0,517.0,499.0,525.0,494.0,503.0,521.0,505.0,519.0,513.0,504.0,508.0,508.0,503.0,498.0,484.0
0,10.0,126.0,41.0,513.0,575.0,525.0,508.96666666666664,508.9,508.7,506.0,502.0,506.0,503.0,466.0,484.0,506.0,510.0,510.0,508.0,510.0,511.0,508.0,512.0,511.0,510.0,503.0,513.0,511.0,509.0,510.0,510.0,509.0,506.0,508.0,506.0,495.0,517.0,550.0,474.0,466.0,487.0,509.0,543.0,552.0,511.0,495.0,536.0,492.0,480.0,492.0,547.0,575.0,487.0,486.0,502.0,503.0,521.0,521.0,516.0,517.0,499.0,525.0,494.0,503.0,521.0,505.0,519.0,513.0,504.0,508.0,508.0,503.0,498.0,484.0,506.0
0,10.0,126.0,41.0,513.0,575.0,525.0,509.1,509.8666666666667,509.23333333333335,508.0,527.0,522.0,503.0,466.0,484.0,510.0,510.0,508.0,510.0,511.0,508.0,512.0,511.0,510.0,503.0,513.0,511.0,509.0,510.0,510.0,509.0,506.0,508.0,506.0,508.0,517.0,550.0,474.0,466.0,487.0,509.0,543.0,552.0,511.0,495.0,536.0,492.0,480.0,492.0,547.0,575.0,487.0,486.0,502.0,527.0,521.0,521.0,516.0,517.0,499.0,525.0,494.0,503.0,521.0,505.0,519.0,513.0,504.0,508.0,508.0,503.0,498.0,484.0,506.0,522.0
0,10.0,126.0,41.0,513.0,575.0,525.0,509.1,511.23333333333335,509.73333333333335,511.0,525.0,516.0,503.0,466.0,484.0,510.0,508.0,510.0,511.0,508.0,512.0,511.0,510.0,503.0,513.0,511.0,509.0,510.0,510.0,509.0,506.0,508.0,506.0,508.0,511.0,550.0,474.0,466.0,487.0,509.0,543.0,552.0,511.0,495.0,536.0,492.0,480.0,492.0,547.0,575.0,487.0,486.0,502.0,527.0,525.0,521.0,516.0,517.0,499.0,525.0,494.0,503.0,521.0,505.0,519.0,513.0,504.0,508.0,508.0,503.0,498.0,484.0,506.0,522.0,516.0
0,10.0,126.0,41.0,513.0,575.0,525.0,508.96666666666664,510.6,509.6666666666667,508.0,486.0,520.0,503.0,466.0,484.0,508.0,510.0,511.0,508.0,512.0,511.0,510.0,503.0,513.0,511.0,509.0,510.0,510.0,509.0,506.0,508.0,506.0,508.0,511.0,508.0,474.0,466.0,487.0,509.0,543.0,552.0,511.0,495.0,536.0,492.0,480.0,492.0,547.0,575.0,487.0,486.0,502.0,527.0,525.0,486.0,516.0,517.0,499.0,525.0,494.0,503.0,521.0,505.0,519.0,513.0,504.0,508.0,508.0,503.0,498.0,484.0,506.0,522.0,516.0,520.0
0,10.0,126.0,41.0,513.0,575.0,525.0,508.8,508.1333333333333,508.93333333333334,505.0,469.0,502.0,503.0,466.0,484.0,510.0,511.0,508.0,512.0,511.0,510.0,503.0,513.0,511.0,509.0,510.0,510.0,509.0,506.0,508.0,506.0,508.0,511.0,508.0,505.0,466.0,487.0,509.0,543.0,552.0,511.0,495.0,536.0,492.0,480.0,492.0,547.0,575.0,487.0,486.0,502.0,527.0,525.0,486.0,469.0,517.0,499.0,525.0,494.0,503.0,521.0,505.0,519.0,513.0,504.0,508.0,508.0,503.0,498.0,484.0,506.0,522.0,516.0,520.0,502.0
0,10.0,127.0,48.0,513.0,575.0,532.0,508.53333333333336,508.1,509.3666666666667,504.0,448.0,532.0,503.0,448.0,484.0,511.0,508.0,512.0,511.0,510.0,503.0,513.0,511.0,509.0,510.0,510.0,509.0,506.0,508.0,506.0,508.0,511.0,508.0,505.0,504.0,487.0,509.0,543.0,552.0,511.0,495.0,536.0,492.0,480.0,492.0,547.0,575.0,487.0,486.0,502.0,527.0,525.0,486.0,469.0,448.0,499.0,525.0,494.0,503.0,521.0,505.0,519.0,513.0,504.0,508.0,508.0,503.0,498.0,484.0,506.0,522.0,516.0,520.0,502.0,532.0
0,27.0,244.0,168.0,530.0,575.0,652.0,509.3,503.46666666666664,513.9666666666667,530.0,331.0,652.0,503.0,331.0,484.0,508.0,512.0,511.0,510.0,503.0,513.0,511.0,509.0,510.0,510.0,509.0,506.0,508.0,506.0,508.0,511.0,508.0,505.0,504.0,530.0,509.0,543.0,552.0,511.0,495.0,536.0,492.0,480.0,492.0,547.0,575.0,487.0,486.0,502.0,527.0,525.0,486.0,469.0,448.0,331.0,525.0,494.0,503.0,521.0,505.0,519.0,513.0,504.0,508.0,508.0,503.0,498.0,484.0,506.0,522.0,516.0,520.0,502.0,532.0,652.0
0,27.0,244.0,168.0,530.0,575.0,652.0,509.4,500.9,518.0333333333333,511.0,445.0,627.0,503.0,331.0,484.0,512.0,511.0,510.0,503.0,513.0,511.0,509.0,510.0,510.0,509.0,506.0,508.0,506.0,508.0,511.0,508.0,505.0,504.0,530.0,511.0,543.0,552.0,511.0,495.0,536.0,492.0,480.0,492.0,547.0,575.0,487.0,486.0,502.0,527.0,525.0,486.0,469.0,448.0,331.0,445.0,494.0,503.0,521.0,505.0,519.0,513.0,504.0,508.0,508.0,503.0,498.0,484.0,506.0,522.0,516.0,520.0,502.0,532.0,652.0,627.0
0,27.0,244.0,168.0,530.0,575.0,652.0,509.26666666666665,498.0,518.3333333333334,506.0,474.0,511.0,503.0,331.0,484.0,511.0,510.0,503.0,513.0,511.0,509.0,510.0,510.0,509.0,506.0,508.0,506.0,508.0,511.0,508.0,505.0,504.0,530.0,511.0,506.0,552.0,511.0,495.0,536.0,492.0,480.0,492.0,547.0,575.0,487.0,486.0,502.0,527.0,525.0,486.0,469.0,448.0,331.0,445.0,474.0,503.0,521.0,505.0,519.0,513.0,504.0,508.0,508.0,503.0,498.0,484.0,506.0,522.0,516.0,520.0,502.0,532.0,652.0,627.0,511.0
0,27.0,244.0,168.0,530.0,575.0,652.0,510.03333333333336,491.2,523.3666666666667,530.0,331.0,652.0,503.0,331.0,484.0,510.0,503.0,513.0,511.0,509.0,510.0,510.0,509.0,506.0,508.0,506.0,508.0,511.0,508.0,505.0,504.0,530.0,511.0,506.0,530.0,511.0,495.0,536.0,492.0,480.0,492.0,547.0,575.0,487.0,486.0,502.0,527.0,525.0,486.0,469.0,448.0,331.0,445.0,474.0,331.0,521.0,505.0,519.0,513.0,504.0,508.0,508.0,503.0,498.0,484.0,506.0,522.0,516.0,520.0,502.0,532.0,652.0,627.0,511.0,652.0
0,27.0,244.0,168.0,530.0,575.0,652.0,510.1666666666667,489.23333333333335,527.6333333333333,511.0,445.0,627.0,503.0,331.0,484.0,503.0,513.0,511.0,509.0,510.0,510.0,509.0,506.0,508.0,506.0,508.0,511.0,508.0,505.0,504.0,530.0,511.0,506.0,530.0,511.0,495.0,536.0,492.0,480.0,492.0,547.0,575.0,487.0,486.0,502.0,527.0,525.0,486.0,469.0,448.0,331.0,445.0,474.0,331.0,445.0,505.0,519.0,513.0,504.0,508.0,508.0,503.0,498.0,484.0,506.0,522.0,516.0,520.0,502.0,532.0,652.0,627.0,511.0,652.0,627.0
0,27.0,244.0,168.0,530.0,575.0,652.0,510.1,487.6666666666667,528.6,504.0,448.0,532.0,504.0,331.0,484.0,513.0,511.0,509.0,510.0,510.0,509.0,506.0,508.0,506.0,508.0,511.0,508.0,505.0,504.0,530.0,511.0,506.0,530.0,511.0,504.0,536.0,492.0,480.0,492.0,547.0,575.0,487.0,486.0,502.0,527.0,525.0,486.0,469.0,448.0,331.0,445.0,474.0,331.0,445.0,448.0,519.0,513.0,504.0,508.0,508.0,503.0,498.0,484.0,506.0,522.0,516.0,520.0,502.0,532.0,652.0,627.0,511.0,652.0,627.0,532.0
0,27.0,244.0,168.0,530.0,575.0,652.0,510.76666666666665,481.46666666666664,532.9666666666667,530.0,331.0,652.0,504.0,331.0,484.0,511.0,509.0,510.0,510.0,509.0,506.0,508.0,506.0,508.0,511.0,508.0,505.0,504.0,530.0,511.0,506.0,530.0,511.0,504.0,530.0,492.0,480.0,492.0,547.0,575.0,487.0,486.0,502.0,527.0,525.0,486.0,469.0,448.0,331.0,445.0,474.0,331.0,445.0,448.0,331.0,513.0,504.0,508.0,508.0,503.0,498.0,484.0,506.0,522.0,516.0,520.0,502.0,532.0,652.0,627.0,511.0,652.0,627.0,532.0,652.0
0,29.0,244.0,168.0,532.0,575.0,652.0,511.5,477.1,537.3,532.0,419.0,651.0,504.0,331.0,484.0,509.0,510.0,510.0,509.0,506.0,508.0,506.0,508.0,511.0,508.0,505.0,504.0,530.0,511.0,506.0,530.0,511.0,504.0,530.0,532.0,480.0,492.0,547.0,575.0,487.0,486.0,502.0,527.0,525.0,486.0,469.0,448.0,331.0,445.0,474.0,331.0,445.0,448.0,331.0,419.0,504.0,508.0,508.0,503.0,498.0,484.0,506.0,522.0,516.0,520.0,502.0,532.0,652.0,627.0,511.0,652.0,627.0,532.0,652.0,651.0
0,29.0,244.0,168.0,532.0,575.0,652.0,512.1333333333333,477.3,538.2333333333333,527.0,480.0,544.0,504.0,331.0,484.0,510.0,510.0,509.0,506.0,508.0,506.0,508.0,511.0,508.0,505.0,504.0,530.0,511.0,506.0,530.0,511.0,504.0,530.0,532.0,527.0,492.0,547.0,575.0,487.0,486.0,502.0,527.0,525.0,486.0,469.0,448.0,331.0,445.0,474.0,331.0,445.0,448.0,331.0,419.0,480.0,508.0,508.0,503.0,498.0,484.0,506.0,522.0,516.0,520.0,502.0,532.0,652.0,627.0,511.0,652.0,627.0,532.0,652.0,651.0,544.0
0,29.0,244.0,168.0,532.0,575.0,652.0,511.93333333333334,476.7,538.7333333333333,504.0,448.0,532.0,504.0,331.0,484.0,510.0,509.0,506.0,508.0,506.0,508.0,511.0,508.0,505.0,504.0,530.0,511.0,506.0,530.0,511.0,504.0,530.0,532.0,527.0,504.0,547.0,575.0,487.0,486.0,502.0,527.0,525.0,486.0,469.0,448.0,331.0,445.0,474.0,331.0,445.0,448.0,331.0,419.0,480.0,448.0,508.0,503.0,498.0,484.0,506.0,522.0,516.0,520.0,502.0,532.0,652.0,627.0,511.0,652.0,627.0,532.0,652.0,651.0,544.0,532.0
0,66.0,244.0,190.0,532.0,575.0,652.0,510.43333333333334,476.3333333333333,537.5,466.0,476.0,462.0,466.0,331.0,462.0,509.0,506.0,508.0,506.0,508.0,511.0,508.0,505.0,504.0,530.0,511.0,506.0,530.0,511.0,504.0,530.0,532.0,527.0,504.0,466.0,575.0,487.0,486.0,502.0,527.0,525.0,486.0,469.0,448.0,331.0,445.0,474.0,331.0,445.0,448.0,331.0,419.0,480.0,448.0,476.0,503.0,498.0,484.0,506.0,522.0,516.0,520.0,502.0,532.0,652.0,627.0,511.0,652.0,627.0,532.0,652.0,651.0,544.0,532.0,462.0
0,68.0,244.0,190.0,534.0,527.0,652.0,511.3,475.23333333333335,536.3666666666667,534.0,476.0,491.0,466.0,331.0,462.0,506.0,508.0,506.0,508.0,511.0,508.0,505.0,504.0,530.0,511.0,506.0,530.0,511.0,504.0,530.0,532.0,527.0,504.0,466.0,534.0,487.0,486.0,502.0,527.0,525.0,486.0,469.0,448.0,331.0,445.0,474.0,331.0,445.0,448.0,331.0,419.0,480.0,448.0,476.0,476.0,498.0,484.0,506.0,522.0,516.0,520.0,502.0,532.0,652.0,627.0,511.0,652.0,627.0,532.0,652.0,651.0,544.0,532.0,462.0,491.0
0,68.0,244.0,190.0,534.0,527.0,652.0,509.96666666666664,473.53333333333336,536.9666666666667,472.0,492.0,512.0,466.0,331.0,462.0,508.0,506.0,508.0,511.0,508.0,505.0,504.0,530.0,511.0,506.0,530.0,511.0,504.0,530.0,532.0,527.0,504.0,466.0,534.0,472.0,486.0,502.0,527.0,525.0,486.0,469.0,448.0,331.0,445.0,474.0,331.0,445.0,448.0,331.0,419.0,480.0,448.0,476.0,476.0,492.0,484.0,506.0,522.0,516.0,520.0,502.0,532.0,652.0,627.0,511.0,652.0,627.0,532.0,652.0,651.0,544.0,532.0,462.0,491.0,512.0
0,72.0,244.0,190.0,534.0,527.0,652.0,508.3333333333333,471.43333333333334,537.0333333333333,462.0,489.0,505.0,462.0,331.0,462.0,506.0,508.0,511.0,508.0,505.0,504.0,530.0,511.0,506.0,530.0,511.0,504.0,530.0,532.0,527.0,504.0,466.0,534.0,472.0,462.0,502.0,527.0,525.0,486.0,469.0,448.0,331.0,445.0,474.0,331.0,445.0,448.0,331.0,419.0,480.0,448.0,476.0,476.0,492.0,489.0,506.0,522.0,516.0,520.0,502.0,532.0,652.0,627.0,511.0,652.0,627.0,532.0,652.0,651.0,544.0,532.0,462.0,491.0,512.0,505.0
0,72.0,352.0,190.0,534.0,683.0,652.0,508.1666666666667,477.1666666666667,536.3333333333334,505.0,683.0,500.0,462.0,331.0,462.0,508.0,511.0,508.0,505.0,504.0,530.0,511.0,506.0,530.0,511.0,504.0,530.0,532.0,527.0,504.0,466.0,534.0,472.0,462.0,505.0,527.0,525.0,486.0,469.0,448.0,331.0,445.0,474.0,331.0,445.0,448.0,331.0,419.0,480.0,448.0,476.0,476.0,492.0,489.0,683.0,522.0,516.0,520.0,502.0,532.0,652.0,627.0,511.0,652.0,627.0,532.0,652.0,651.0,544.0,532.0,462.0,491.0,512.0,505.0,500.0
0,72.0,352.0,263.0,534.0,683.0,652.0,507.96666666666664,480.26666666666665,532.4666666666667,497.0,588.0,389.0,462.0,331.0,389.0,511.0,508.0,505.0,504.0,530.0,511.0,506.0,530.0,511.0,504.0,530.0,532.0,527.0,504.0,466.0,534.0,472.0,462.0,505.0,497.0,525.0,486.0,469.0,448.0,331.0,445.0,474.0,331.0,445.0,448.0,331.0,419.0,480.0,448.0,476.0,476.0,492.0,489.0,683.0,588.0,516.0,520.0,502.0,532.0,652.0,627.0,511.0,652.0,627.0,532.0,652.0,651.0,544.0,532.0,462.0,491.0,512.0,505.0,500.0,389.0
0,72.0,352.0,263.0,534.0,683.0,652.0,508.1666666666667,478.5,530.7666666666667,519.0,483.0,468.0,462.0,331.0,389.0,508.0,505.0,504.0,530.0,511.0,506.0,530.0,511.0,504.0,530.0,532.0,527.0,504.0,466.0,534.0,472.0,462.0,505.0,497.0,519.0,486.0,469.0,448.0,331.0,445.0,474.0,331.0,445.0,448.0,331.0,419.0,480.0,448.0,476.0,476.0,492.0,489.0,683.0,588.0,483.0,520.0,502.0,532.0,652.0,627.0,511.0,652.0,627.0,532.0,652.0,651.0,544.0,532.0,462.0,491.0,512.0,505.0,500.0,389.0,468.0
0,123.0,352.0,263.0,585.0,683.0,652.0,510.6333333333333,479.1,529.4,585.0,510.0,472.0,462.0,331.0,389.0,505.0,504.0,530.0,511.0,506.0,530.0,511.0,504.0,530.0,532.0,527.0,504.0,466.0,534.0,472.0,462.0,505.0,497.0,519.0,585.0,469.0,448.0,331.0,445.0,474.0,331.0,445.0,448.0,331.0,419.0,480.0,448.0,476.0,476.0,492.0,489.0,683.0,588.0,483.0,510.0,502.0,532.0,652.0,627.0,511.0,652.0,627.0,532.0,652.0,651.0,544.0,532.0,462.0,491.0,512.0,505.0,500.0,389.0,468.0,472.0
0,123.0,352.0,263.0,585.0,683.0,652.0,509.4,477.7,527.2666666666667,472.0,438.0,440.0,462.0,331.0,389.0,504.0,530.0,511.0,506.0,530.0,511.0,504.0,530.0,532.0,527.0,504.0,466.0,534.0,472.0,462.0,505.0,497.0,519.0,585.0,472.0,448.0,331.0,445.0,474.0,331.0,445.0,448.0,331.0,419.0,480.0,448.0,476.0,476.0,492.0,489.0,683.0,588.0,483.0,510.0,438.0,532.0,652.0,627.0,511.0,652.0,627.0,532.0,652.0,651.0,544.0,532.0,462.0,491.0,512.0,505.0,500.0,389.0,468.0,472.0,440.0
0,123.0,352.0,263.0,585.0,683.0,652.0,510.6666666666667,476.96666666666664,530.1333333333333,548.0,470.0,594.0,462.0,331.0,389.0,530.0,511.0,506.0,530.0,511.0,504.0,530.0,532.0,527.0,504.0,466.0,534.0,472.0,462.0,505.0,497.0,519.0,585.0,472.0,548.0,331.0,445.0,474.0,331.0,445.0,448.0,331.0,419.0,480.0,448.0,476.0,476.0,492.0,489.0,683.0,588.0,483.0,510.0,438.0,470.0,652.0,627.0,511.0,652.0,627.0,532.0,652.0,651.0,544.0,532.0,462.0,491.0,512.0,505.0,500.0,389.0,468.0,472.0,440.0,594.0
0,123.0,352.0,263.0,585.0,683.0,652.0,510.73333333333335,474.93333333333334,528.3,512.0,486.0,453.0,462.0,331.0,389.0,511.0,506.0,530.0,511.0,504.0,530.0,532.0,527.0,504.0,466.0,534.0,472.0,462.0,505.0,497.0,519.0,585.0,472.0,548.0,512.0,445.0,474.0,331.0,445.0,448.0,331.0,419.0,480.0,448.0,476.0,476.0,492.0,489.0,683.0,588.0,483.0,510.0,438.0,470.0,486.0,627.0,511.0,652.0,627.0,532.0,652.0,651.0,544.0,532.0,462.0,491.0,512.0,505.0,500.0,389.0,468.0,472.0,440.0,594.0,453.0
0,123.0,352.0,263.0,585.0,683.0,652.0,511.23333333333335,472.7,530.7,524.0,508.0,575.0,462.0,331.0,389.0,506.0,530.0,511.0,504.0,530.0,532.0,527.0,504.0,466.0,534.0,472.0,462.0,505.0,497.0,519.0,585.0,472.0,548.0,512.0,524.0,474.0,331.0,445.0,448.0,331.0,419.0,480.0,448.0,476.0,476.0,492.0,489.0,683.0,588.0,483.0,510.0,438.0,470.0,486.0,508.0,511.0,652.0,627.0,532.0,652.0,651.0,544.0,532.0,462.0,491.0,512.0,505.0,500.0,389.0,468.0,472.0,440.0,594.0,453.0,575.0
0,123.0,352.0,263.0,585.0,683.0,652.0,511.8666666666667,473.96666666666664,530.2666666666667,525.0,525.0,485.0,462.0,331.0,389.0,530.0,511.0,504.0,530.0,532.0,527.0,504.0,466.0,534.0,472.0,462.0,505.0,497.0,519.0,585.0,472.0,548.0,512.0,524.0,525.0,331.0,445.0,448.0,331.0,419.0,480.0,448.0,476.0,476.0,492.0,489.0,683.0,588.0,483.0,510.0,438.0,470.0,486.0,508.0,525.0,652.0,627.0,532.0,652.0,651.0,544.0,532.0,462.0,491.0,512.0,505.0,500.0,389.0,468.0,472.0,440.0,594.0,453.0,575.0,485.0
0,123.0,352.0,263.0,585.0,683.0,652.0,512.1,475.1333333333333,530.9333333333333,515.0,521.0,504.0,462.0,331.0,389.0,511.0,504.0,530.0,532.0,527.0,504.0,466.0,534.0,472.0,462.0,505.0,497.0,519.0,585.0,472.0,548.0,512.0,524.0,525.0,515.0,445.0,448.0,331.0,419.0,480.0,448.0,476.0,476.0,492.0,489.0,683.0,588.0,483.0,510.0,438.0,470.0,486.0,508.0,525.0,521.0,627.0,532.0,652.0,651.0,544.0,532.0,462.0,491.0,512.0,505.0,500.0,389.0,468.0,472.0,440.0,594.0,453.0,575.0,485.0,504.0
0,123.0,352.0,295.0,585.0,683.0,652.0,512.7666666666667,475.53333333333336,525.9666666666667,526.0,514.0,357.0,462.0,331.0,357.0,504.0,530.0,532.0,527.0,504.0,466.0,534.0,472.0,462.0,505.0,497.0,519.0,585.0,472.0,548.0,512.0,524.0,525.0,515.0,526.0,448.0,331.0,419.0,480.0,448.0,476.0,476.0,492.0,489.0,683.0,588.0,483.0,510.0,438.0,470.0,486.0,508.0,525.0,521.0,514.0,532.0,652.0,651.0,544.0,532.0,462.0,491.0,512.0,505.0,500.0,389.0,468.0,472.0,440.0,594.0,453.0,575.0,485.0,504.0,357.0
0,123.0,352.0,295.0,585.0,683.0,652.0,513.0,475.46666666666664,529.1333333333333,515.0,525.0,617.0,462.0,331.0,357.0,530.0,532.0,527.0,504.0,466.0,534.0,472.0,462.0,505.0,497.0,519.0,585.0,472.0,548.0,512.0,524.0,525.0,515.0,526.0,515.0,331.0,419.0,480.0,448.0,476.0,476.0,492.0,489.0,683.0,588.0,483.0,510.0,438.0,470.0,486.0,508.0,525.0,521.0,514.0,525.0,652.0,651.0,544.0,532.0,462.0,491.0,512.0,505.0,500.0,389.0,468.0,472.0,440.0,594.0,453.0,575.0,485.0,504.0,357.0,617.0
0,123.0,352.0,295.0,585.0,683.0,651.0,512.8,474.73333333333335,529.2,505.0,503.0,518.0,462.0,419.0,357.0,532.0,527.0,504.0,466.0,534.0,472.0,462.0,505.0,497.0,519.0,585.0,472.0,548.0,512.0,524.0,525.0,515.0,526.0,515.0,505.0,419.0,480.0,448.0,476.0,476.0,492.0,489.0,683.0,588.0,483.0,510.0,438.0,470.0,486.0,508.0,525.0,521.0,514.0,525.0,503.0,651.0,544.0,532.0,462.0,491.0,512.0,505.0,500.0,389.0,468.0,472.0,440.0,594.0,453.0,575.0,485.0,504.0,357.0,617.0,518.0
0,123.0,352.0,295.0,585.0,683.0,617.0,512.6333333333333,476.03333333333336,526.1333333333333,503.0,525.0,428.0,462.0,438.0,357.0,527.0,504.0,466.0,534.0,472.0,462.0,505.0,497.0,519.0,585.0,472.0,548.0,512.0,524.0,525.0,515.0,526.0,515.0,505.0,503.0,480.0,448.0,476.0,476.0,492.0,489.0,683.0,588.0,483.0,510.0,438.0,470.0,486.0,508.0,525.0,521.0,514.0,525.0,503.0,525.0,544.0,532.0,462.0,491.0,512.0,505.0,500.0,389.0,468.0,472.0,440.0,594.0,453.0,575.0,485.0,504.0,357.0,617.0,518.0,428.0
0,123.0,352.0,295.0,585.0,683.0,617.0,512.9333333333333,477.6333333333333,529.3333333333334,514.0,517.0,598.0,462.0,438.0,357.0,504.0,466.0,534.0,472.0,462.0,505.0,497.0,519.0,585.0,472.0,548.0,512.0,524.0,525.0,515.0,526.0,515.0,505.0,503.0,514.0,448.0,476.0,476.0,492.0,489.0,683.0,588.0,483.0,510.0,438.0,470.0,486.0,508.0,525.0,521.0,514.0,525.0,503.0,525.0,517.0,532.0,462.0,491.0,512.0,505.0,500.0,389.0,468.0,472.0,440.0,594.0,453.0,575.0,485.0,504.0,357.0,617.0,518.0,428.0,598.0
0,123.0,352.0,295.0,585.0,683.0,617.0,513.1666666666666,478.8333333333333,527.8666666666667,511.0,484.0,488.0,462.0,438.0,357.0,466.0,534.0,472.0,462.0,505.0,497.0,519.0,585.0,472.0,548.0,512.0,524.0,525.0,515.0,526.0,515.0,505.0,503.0,514.0,511.0,476.0,476.0,492.0,489.0,683.0,588.0,483.0,510.0,438.0,470.0,486.0,508.0,525.0,521.0,514.0,525.0,503.0,525.0,517.0,484.0,462.0,491.0,512.0,505.0,500.0,389.0,468.0,472.0,440.0,594.0,453.0,575.0,485.0,504.0,357.0,617.0,518.0,428.0,598.0,488.0
0,123.0,352.0,295.0,585.0,683.0,617.0,512.2,485.4,522.5666666666667,501.0,528.0,493.0,462.0,438.0,357.0,534.0,472.0,462.0,505.0,497.0,519.0,585.0,472.0,548.0,512.0,524.0,525.0,515.0,526.0,515.0,505.0,503.0,514.0,511.0,501.0,476.0,492.0,489.0,683.0,588.0,483.0,510.0,438.0,470.0,486.0,508.0,525.0,521.0,514.0,525.0,503.0,525.0,517.0,484.0,528.0,491.0,512.0,505.0,500.0,389.0,468.0,472.0,440.0,594.0,453.0,575.0,485.0,504.0,357.0,617.0,518.0,428.0,598.0,488.0,493.0
0,123.0,352.0,295.0,585.0,683.0,617.0,511.8,487.6333333333333,519.2,499.0,512.0,526.0,462.0,438.0,357.0,472.0,462.0,505.0,497.0,519.0,585.0,472.0,548.0,512.0,524.0,525.0,515.0,526.0,515.0,505.0,503.0,514.0,511.0,501.0,499.0,492.0,489.0,683.0,588.0,483.0,510.0,438.0,470.0,486.0,508.0,525.0,521.0,514.0,525.0,503.0,525.0,517.0,484.0,528.0,512.0,512.0,505.0,500.0,389.0,468.0,472.0,440.0,594.0,453.0,575.0,485.0,504.0,357.0,617.0,518.0,428.0,598.0,488.0,493.0,526.0
0,123.0,352.0,295.0,585.0,683.0,617.0,511.93333333333334,488.3,517.7666666666667,510.0,494.0,468.0,462.0,438.0,357.0,462.0,505.0,497.0,519.0,585.0,472.0,548.0,512.0,524.0,525.0,515.0,526.0,515.0,505.0,503.0,514.0,511.0,501.0,499.0,510.0,489.0,683.0,588.0,483.0,510.0,438.0,470.0,486.0,508.0,525.0,521.0,514.0,525.0,503.0,525.0,517.0,484.0,528.0,512.0,494.0,505.0,500.0,389.0,468.0,472.0,440.0,594.0,453.0,575.0,485.0,504.0,357.0,617.0,518.0,428.0,598.0,488.0,493.0,526.0,468.0
0,123.0,352.0,295.0,585.0,683.0,617.0,511.1333333333333,494.1,513.5333333333333,506.0,505.0,525.0,472.0,438.0,357.0,505.0,497.0,519.0,585.0,472.0,548.0,512.0,524.0,525.0,515.0,526.0,515.0,505.0,503.0,514.0,511.0,501.0,499.0,510.0,506.0,683.0,588.0,483.0,510.0,438.0,470.0,486.0,508.0,525.0,521.0,514.0,525.0,503.0,525.0,517.0,484.0,528.0,512.0,494.0,505.0,500.0,389.0,468.0,472.0,440.0,594.0,453.0,575.0,485.0,504.0,357.0,617.0,518.0,428.0,598.0,488.0,493.0,526.0,468.0,525.0
0,123.0,352.0,295.0,585.0,588.0,617.0,511.1333333333333,495.9,508.43333333333334,511.0,499.0,474.0,472.0,438.0,357.0,497.0,519.0,585.0,472.0,548.0,512.0,524.0,525.0,515.0,526.0,515.0,505.0,503.0,514.0,511.0,501.0,499.0,510.0,506.0,511.0,588.0,483.0,510.0,438.0,470.0,486.0,508.0,525.0,521.0,514.0,525.0,503.0,525.0,517.0,484.0,528.0,512.0,494.0,505.0,499.0,389.0,468.0,472.0,440.0,594.0,453.0,575.0,485.0,504.0,357.0,617.0,518.0,428.0,598.0,488.0,493.0,526.0,468.0,525.0,474.0
0,123.0,352.0,295.0,585.0,528.0,617.0,511.1,497.3666666666667,506.9,503.0,492.0,486.0,472.0,438.0,357.0,519.0,585.0,472.0,548.0,512.0,524.0,525.0,515.0,526.0,515.0,505.0,503.0,514.0,511.0,501.0,499.0,510.0,506.0,511.0,503.0,483.0,510.0,438.0,470.0,486.0,508.0,525.0,521.0,514.0,525.0,503.0,525.0,517.0,484.0,528.0,512.0,494.0,505.0,499.0,492.0,468.0,472.0,440.0,594.0,453.0,575.0,485.0,504.0,357.0,617.0,518.0,428.0,598.0,488.0,493.0,526.0,468.0,525.0,474.0,486.0
0,123.0,264.0,294.0,585.0,528.0,617.0,510.56666666666666,502.43333333333334,503.1666666666667,514.0,483.0,540.0,472.0,438.0,357.0,585.0,472.0,548.0,512.0,524.0,525.0,515.0,526.0,515.0,505.0,503.0,514.0,511.0,501.0,499.0,510.0,506.0,511.0,503.0,514.0,510.0,438.0,470.0,486.0,508.0,525.0,521.0,514.0,525.0,503.0,525.0,517.0,484.0,528.0,512.0,494.0,505.0,499.0,492.0,483.0,472.0,440.0,594.0,453.0,575.0,485.0,504.0,357.0,617.0,518.0,428.0,598.0,488.0,493.0,526.0,468.0,525.0,474.0,486.0,540.0
0,123.0,245.0,260.0,548.0,528.0,617.0,509.76666666666665,505.96666666666664,497.8333333333333,508.0,525.0,491.0,472.0,438.0,357.0,472.0,548.0,512.0,524.0,525.0,515.0,526.0,515.0,505.0,503.0,514.0,511.0,501.0,499.0,510.0,506.0,511.0,503.0,514.0,508.0,438.0,470.0,486.0,508.0,525.0,521.0,514.0,525.0,503.0,525.0,517.0,484.0,528.0,512.0,494.0,505.0,499.0,492.0,483.0,525.0,440.0,594.0,453.0,575.0,485.0,504.0,357.0,617.0,518.0,428.0,598.0,488.0,493.0,526.0,468.0,525.0,474.0,486.0,540.0,491.0
0,123.0,245.0,260.0,548.0,570.0,617.0,509.06666666666666,508.96666666666664,497.7,506.0,570.0,540.0,499.0,470.0,357.0,548.0,512.0,524.0,525.0,515.0,526.0,515.0,505.0,503.0,514.0,511.0,501.0,499.0,510.0,506.0,511.0,503.0,514.0,508.0,506.0,470.0,486.0,508.0,525.0,521.0,514.0,525.0,503.0,525.0,517.0,484.0,528.0,512.0,494.0,505.0,499.0,492.0,483.0,525.0,570.0,594.0,453.0,575.0,485.0,504.0,357.0,617.0,518.0,428.0,598.0,488.0,493.0,526.0,468.0,525.0,474.0,486.0,540.0,491.0,540.0
0,123.0,245.0,260.0,526.0,570.0,617.0,509.4,510.8666666666667,496.53333333333336,514.0,505.0,497.0,499.0,483.0,357.0,512.0,524.0,525.0,515.0,526.0,515.0,505.0,503.0,514.0,511.0,501.0,499.0,510.0,506.0,511.0,503.0,514.0,508.0,506.0,514.0,486.0,508.0,525.0,521.0,514.0,525.0,503.0,525.0,517.0,484.0,528.0,512.0,494.0,505.0,499.0,492.0,483.0,525.0,570.0,505.0,453.0,575.0,485.0,504.0,357.0,617.0,518.0,428.0,598.0,488.0,493.0,526.0,468.0,525.0,474.0,486.0,540.0,491.0,540.0,497.0
0,123.0,245.0,260.0,526.0,570.0,617.0,510.4,510.6666666666667,498.26666666666665,496.0,470.0,514.0,496.0,470.0,357.0,524.0,525.0,515.0,526.0,515.0,505.0,503.0,514.0,511.0,501.0,499.0,510.0,506.0,511.0,503.0,514.0,508.0,506.0,514.0,496.0,508.0,525.0,521.0,514.0,525.0,503.0,525.0,517.0,484.0,528.0,512.0,494.0,505.0,499.0,492.0,483.0,525.0,570.0,505.0,470.0,575.0,485.0,504.0,357.0,617.0,518.0,428.0,598.0,488.0,493.0,526.0,468.0,525.0,474.0,486.0,540.0,491.0,540.0,497.0,514.0
0,123.0,245.0,260.0,526.0,570.0,617.0,510.1,510.6,498.8666666666667,525.0,474.0,509.0,496.0,470.0,357.0,525.0,515.0,526.0,515.0,505.0,503.0,514.0,511.0,501.0,499.0,510.0,506.0,511.0,503.0,514.0,508.0,506.0,514.0,496.0,525.0,525.0,521.0,514.0,525.0,503.0,525.0,517.0,484.0,528.0,512.0,494.0,505.0,499.0,492.0,483.0,525.0,570.0,505.0,470.0,474.0,485.0,504.0,357.0,617.0,518.0,428.0,598.0,488.0,493.0,526.0,468.0,525.0,474.0,486.0,540.0,491.0,540.0,497.0,514.0,509.0
0,123.0,245.0,260.0,526.0,570.0,617.0,511.3,510.3333333333333,498.9,508.0,484.0,513.0,496.0,470.0,357.0,515.0,526.0,515.0,505.0,503.0,514.0,511.0,501.0,499.0,510.0,506.0,511.0,503.0,514.0,508.0,506.0,514.0,496.0,525.0,508.0,521.0,514.0,525.0,503.0,525.0,517.0,484.0,528.0,512.0,494.0,505.0,499.0,492.0,483.0,525.0,570.0,505.0,470.0,474.0,484.0,504.0,357.0,617.0,518.0,428.0,598.0,488.0,493.0,526.0,468.0,525.0,474.0,486.0,540.0,491.0,540.0,497.0,514.0,509.0,513.0
0,113.0,245.0,260.0,526.0,570.0,617.0,513.0666666666667,511.96666666666664,498.56666666666666,515.0,538.0,495.0,496.0,470.0,357.0,526.0,515.0,505.0,503.0,514.0,511.0,501.0,499.0,510.0,506.0,511.0,503.0,514.0,508.0,506.0,514.0,496.0,525.0,508.0,515.0,514.0,525.0,503.0,525.0,517.0,484.0,528.0,512.0,494.0,505.0,499.0,492.0,483.0,525.0,570.0,505.0,470.0,474.0,484.0,538.0,357.0,617.0,518.0,428.0,598.0,488.0,493.0,526.0,468.0,525.0,474.0,486.0,540.0,491.0,540.0,497.0,514.0,509.0,513.0,495.0
0,113.0,150.0,260.0,525.0,570.0,617.0,513.1333333333333,506.5,497.3333333333333,507.0,519.0,463.0,496.0,470.0,428.0,515.0,505.0,503.0,514.0,511.0,501.0,499.0,510.0,506.0,511.0,503.0,514.0,508.0,506.0,514.0,496.0,525.0,508.0,515.0,507.0,525.0,503.0,525.0,517.0,484.0,528.0,512.0,494.0,505.0,499.0,492.0,483.0,525.0,570.0,505.0,470.0,474.0,484.0,538.0,519.0,617.0,518.0,428.0,598.0,488.0,493.0,526.0,468.0,525.0,474.0,486.0,540.0,491.0,540.0,497.0,514.0,509.0,513.0,495.0,463.0
0,113.0,132.0,260.0,525.0,570.0,598.0,513.4,503.3333333333333,501.93333333333334,505.0,493.0,527.0,496.0,470.0,428.0,505.0,503.0,514.0,511.0,501.0,499.0,510.0,506.0,511.0,503.0,514.0,508.0,506.0,514.0,496.0,525.0,508.0,515.0,507.0,505.0,503.0,525.0,517.0,484.0,528.0,512.0,494.0,505.0,499.0,492.0,483.0,525.0,570.0,505.0,470.0,474.0,484.0,538.0,519.0,493.0,518.0,428.0,598.0,488.0,493.0,526.0,468.0,525.0,474.0,486.0,540.0,491.0,540.0,497.0,514.0,509.0,513.0,495.0,463.0,527.0
0,113.0,132.0,260.0,525.0,570.0,598.0,512.9333333333333,504.03333333333336,503.2,505.0,504.0,506.0,496.0,470.0,428.0,503.0,514.0,511.0,501.0,499.0,510.0,506.0,511.0,503.0,514.0,508.0,506.0,514.0,496.0,525.0,508.0,515.0,507.0,505.0,505.0,525.0,517.0,484.0,528.0,512.0,494.0,505.0,499.0,492.0,483.0,525.0,570.0,505.0,470.0,474.0,484.0,538.0,519.0,493.0,504.0,428.0,598.0,488.0,493.0,526.0,468.0,525.0,474.0,486.0,540.0,491.0,540.0,497.0,514.0,509.0,513.0,495.0,463.0,527.0,506.0
0,76.0,132.0,260.0,525.0,570.0,598.0,510.3,503.3666666666667,504.56666666666666,506.0,490.0,513.0,496.0,470.0,463.0,514.0,511.0,501.0,499.0,510.0,506.0,511.0,503.0,514.0,508.0,506.0,514.0,496.0,525.0,508.0,515.0,507.0,505.0,505.0,506.0,517.0,484.0,528.0,512.0,494.0,505.0,499.0,492.0,483.0,525.0,570.0,505.0,470.0,474.0,484.0,538.0,519.0,493.0,504.0,490.0,598.0,488.0,493.0,526.0,468.0,525.0,474.0,486.0,540.0,491.0,540.0,497.0,514.0,509.0,513.0,495.0,463.0,527.0,506.0,513.0
0,52.0,100.0,260.0,525.0,570.0,540.0,511.4,505.6333333333333,507.2,505.0,506.0,519.0,496.0,470.0,463.0,511.0,501.0,499.0,510.0,506.0,511.0,503.0,514.0,508.0,506.0,514.0,496.0,525.0,508.0,515.0,507.0,505.0,505.0,506.0,505.0,484.0,528.0,512.0,494.0,505.0,499.0,492.0,483.0,525.0,570.0,505.0,470.0,474.0,484.0,538.0,519.0,493.0,504.0,490.0,506.0,488.0,493.0,526.0,468.0,525.0,474.0,486.0,540.0,491.0,540.0,497.0,514.0,509.0,513.0,495.0,463.0,527.0,506.0,513.0,519.0
0,30.0,100.0,260.0,525.0,570.0,540.0,509.93333333333334,507.0,504.3,504.0,511.0,507.0,496.0,470.0,463.0,501.0,499.0,510.0,506.0,511.0,503.0,514.0,508.0,506.0,514.0,496.0,525.0,508.0,515.0,507.0,505.0,505.0,506.0,505.0,504.0,528.0,512.0,494.0,505.0,499.0,492.0,483.0,525.0,570.0,505.0,470.0,474.0,484.0,538.0,519.0,493.0,504.0,490.0,506.0,511.0,493.0,526.0,468.0,525.0,474.0,486.0,540.0,491.0,540.0,497.0,514.0,509.0,513.0,495.0,463.0,527.0,506.0,513.0,519.0,507.0
0,30.0,100.0,260.0,525.0,570.0,540.0,509.76666666666665,507.5,505.9,507.0,501.0,501.0,496.0,470.0,463.0,499.0,510.0,506.0,511.0,503.0,514.0,508.0,506.0,514.0,496.0,525.0,508.0,515.0,507.0,505.0,505.0,506.0,505.0,504.0,507.0,512.0,494.0,505.0,499.0,492.0,483.0,525.0,570.0,505.0,470.0,474.0,484.0,538.0,519.0,493.0,504.0,490.0,506.0,511.0,501.0,526.0,468.0,525.0,474.0,486.0,540.0,491.0,540.0,497.0,514.0,509.0,513.0,495.0,463.0,527.0,506.0,513.0,519.0,507.0,501.0
0,30.0,100.0,260.0,525.0,570.0,540.0,509.23333333333335,508.7,503.9,508.0,544.0,515.0,496.0,470.0,463.0,510.0,506.0,511.0,503.0,514.0,508.0,506.0,514.0,496.0,525.0,508.0,515.0,507.0,505.0,505.0,506.0,505.0,504.0,507.0,508.0,494.0,505.0,499.0,492.0,483.0,525.0,570.0,505.0,470.0,474.0,484.0,538.0,519.0,493.0,504.0,490.0,506.0,511.0,501.0,544.0,468.0,525.0,474.0,486.0,540.0,491.0,540.0,497.0,514.0,509.0,513.0,495.0,463.0,527.0,506.0,513.0,519.0,507.0,501.0,515.0
0,30.0,100.0,260.0,525.0,570.0,540.0,508.6333333333333,509.1666666666667,504.43333333333334,507.0,539.0,501.0,496.0,470.0,463.0,506.0,511.0,503.0,514.0,508.0,506.0,514.0,496.0,525.0,508.0,515.0,507.0,505.0,505.0,506.0,505.0,504.0,507.0,508.0,507.0,505.0,499.0,492.0,483.0,525.0,570.0,505.0,470.0,474.0,484.0,538.0,519.0,493.0,504.0,490.0,506.0,511.0,501.0,544.0,539.0,525.0,474.0,486.0,540.0,491.0,540.0,497.0,514.0,509.0,513.0,495.0,463.0,527.0,506.0,513.0,519.0,507.0,501.0,515.0,501.0
0,30.0,100.0,260.0,525.0,570.0,540.0,508.3,509.2,504.53333333333336,505.0,522.0,507.0,496.0,470.0,463.0,511.0,503.0,514.0,508.0,506.0,514.0,496.0,525.0,508.0,515.0,507.0,505.0,505.0,506.0,505.0,504.0,507.0,508.0,507.0,505.0,499.0,492.0,483.0,525.0,570.0,505.0,470.0,474.0,484.0,538.0,519.0,493.0,504.0,490.0,506.0,511.0,501.0,544.0,539.0,522.0,474.0,486.0,540.0,491.0,540.0,497.0,514.0,509.0,513.0,495.0,463.0,527.0,506.0,513.0,519.0,507.0,501.0,515.0,501.0,507.0
0,29.0,100.0,189.0,525.0,570.0,540.0,507.6666666666667,508.96666666666664,509.8666666666667,507.0,507.0,517.0,496.0,470.0,463.0,503.0,514.0,508.0,506.0,514.0,496.0,525.0,508.0,515.0,507.0,505.0,505.0,506.0,505.0,504.0,507.0,508.0,507.0,505.0,507.0,492.0,483.0,525.0,570.0,505.0,470.0,474.0,484.0,538.0,519.0,493.0,504.0,490.0,506.0,511.0,501.0,544.0,539.0,522.0,507.0,486.0,540.0,491.0,540.0,497.0,514.0,509.0,513.0,495.0,463.0,527.0,506.0,513.0,519.0,507.0,501.0,515.0,501.0,507.0,517.0
0,29.0,100.0,170.0,525.0,570.0,540.0,507.3666666666667,508.6,506.46666666666664,506.0,514.0,515.0,496.0,470.0,463.0,514.0,508.0,506.0,514.0,496.0,525.0,508.0,515.0,507.0,505.0,505.0,506.0,505.0,504.0,507.0,508.0,507.0,505.0,507.0,506.0,483.0,525.0,570.0,505.0,470.0,474.0,484.0,538.0,519.0,493.0,504.0,490.0,506.0,511.0,501.0,544.0,539.0,522.0,507.0,514.0,540.0,491.0,540.0,497.0,514.0,509.0,513.0,495.0,463.0,527.0,506.0,513.0,519.0,507.0,501.0,515.0,501.0,507.0,517.0,515.0
