,emg_med_0,emg_med_1,emg_med_2,emg_min_0,emg_min_1,emg_min_2,emg_prev_0_0,emg_prev_0_1,emg_prev_0_2,emg_prev_0_3,emg_prev_0_4,emg_prev_0_5,emg_prev_0_6,emg_prev_0_7,emg_prev_0_8,emg_prev_0_9,emg_prev_0_10,emg_prev_0_11,emg_prev_0_12,emg_prev_0_13,emg_prev_0_14,emg_prev_0_15,emg_prev_0_16,emg_prev_0_17,emg_prev_0_18,emg_prev_0_19,emg_prev_1_0,emg_prev_1_1,emg_prev_1_2,emg_prev_1_3,emg_prev_1_4,emg_prev_1_5,emg_prev_1_6,emg_prev_1_7,emg_prev_1_8,emg_prev_1_9,emg_prev_1_10,emg_prev_1_11,emg_prev_1_12,emg_prev_1_13,emg_prev_1_14,emg_prev_1_15,emg_prev_1_16,emg_prev_1_17,emg_prev_1_18,emg_prev_1_19,emg_prev_2_0,emg_prev_2_1,emg_prev_2_2,emg_prev_2_3,emg_prev_2_4,emg_prev_2_5,emg_prev_2_6,emg_prev_2_7,emg_prev_2_8,emg_prev_2_9,emg_prev_2_10,emg_prev_2_11,emg_prev_2_12,emg_prev_2_13,emg_prev_2_14,emg_prev_2_15,emg_prev_2_16,emg_prev_2_17,emg_prev_2_18,emg_prev_2_19,emg_max_0,emg_max_1,emg_max_2,emg_0,emg_1,emg_2,emg_ampl_0,emg_ampl_1,emg_ampl_2
0,0.0,0.0,0.0,0.0,0.0,0.0,0.0,0.0,0.0,0.0,0.0,0.0,0.0,0.0,0.0,0.0,0.0,0.0,0.0,0.0,0.0,0.0,0.0,0.0,0.0,0.0,0.0,0.0,0.0,0.0,0.0,0.0,0.0,0.0,0.0,0.0,0.0,0.0,0.0,0.0,0.0,0.0,0.0,0.0,0.0,0.0,0.0,0.0,0.0,0.0,0.0,0.0,0.0,0.0,0.0,0.0,0.0,0.0,0.0,0.0,0.0,0.0,0.0,0.0,0.0,0.0,0.0,0.0,0.0,0,0,0,0.0,0.0,0.0
0,511.43333333333334,498.6,508.43333333333334,511.0,496.0,508.0,511.0,511.0,511.0,511.0,511.0,511.0,511.0,512.0,512.0,512.0,512.0,512.0,512.0,512.0,512.0,512.0,512.0,512.0,512.0,512.0,496.0,496.0,496.0,496.0,496.0,496.0,496.0,502.0,502.0,502.0,502.0,502.0,502.0,502.0,502.0,502.0,502.0,502.0,502.0,502.0,508.0,508.0,508.0,508.0,508.0,508.0,508.0,509.0,509.0,509.0,509.0,509.0,509.0,509.0,509.0,509.0,509.0,509.0,509.0,509.0,512.0,502.0,509.0,500,500,500,1.0,6.0,1.0
0,512.8666666666667,497.1,506.96666666666664,513.0,496.0,506.0,513.0,513.0,513.0,513.0,513.0,513.0,513.0,513.0,513.0,513.0,513.0,513.0,513.0,513.0,513.0,513.0,513.0,513.0,513.0,513.0,496.0,496.0,496.0,496.0,496.0,496.0,496.0,496.0,496.0,496.0,496.0,497.0,497.0,497.0,497.0,497.0,497.0,497.0,497.0,497.0,507.0,507.0,507.0,507.0,507.0,507.0,507.0,507.0,507.0,507.0,507.0,506.0,506.0,506.0,506.0,506.0,506.0,506.0,506.0,506.0,513.0,497.0,507.0,500,500,500,1.0,6.0,3.0
0,512.8,501.2,506.6,512.0,497.0,506.0,513.0,513.0,513.0,513.0,513.0,513.0,513.0,513.0,513.0,513.0,513.0,513.0,513.0,513.0,512.0,512.0,512.0,512.0,512.0,512.0,497.0,497.0,497.0,497.0,497.0,497.0,497.0,497.0,497.0,497.0,497.0,497.0,497.0,497.0,519.0,519.0,519.0,519.0,519.0,519.0,506.0,506.0,506.0,506.0,506.0,506.0,506.0,506.0,506.0,506.0,506.0,506.0,506.0,506.0,508.0,508.0,508.0,508.0,508.0,508.0,513.0,519.0,508.0,500,500,500,1.0,23.0,2.0
0,512.0333333333333,516.2666666666667,507.43333333333334,512.0,515.0,507.0,512.0,512.0,512.0,512.0,512.0,512.0,512.0,512.0,512.0,512.0,512.0,512.0,512.0,512.0,512.0,512.0,512.0,512.0,512.0,512.0,519.0,519.0,519.0,519.0,519.0,515.0,515.0,515.0,515.0,515.0,515.0,515.0,515.0,515.0,515.0,515.0,515.0,515.0,515.0,515.0,508.0,508.0,508.0,508.0,508.0,507.0,507.0,507.0,507.0,507.0,507.0,507.0,507.0,507.0,507.0,507.0,507.0,507.0,507.0,507.0,512.0,519.0,508.0,500,500,500,1.0,22.0,2.0
0,512.3,510.0,506.4,511.0,504.0,501.0,512.0,512.0,512.0,512.0,512.0,513.0,513.0,513.0,513.0,513.0,513.0,513.0,513.0,513.0,513.0,513.0,513.0,511.0,511.0,511.0,515.0,515.0,515.0,515.0,515.0,504.0,504.0,504.0,504.0,504.0,504.0,504.0,504.0,504.0,504.0,504.0,504.0,509.0,509.0,509.0,507.0,507.0,507.0,507.0,507.0,507.0,507.0,507.0,507.0,507.0,507.0,507.0,507.0,507.0,507.0,507.0,507.0,501.0,501.0,501.0,513.0,515.0,507.0,500,500,500,2.0,11.0,6.0
0,512.1333333333333,508.8,505.2,511.0,504.0,501.0,513.0,513.0,513.0,513.0,513.0,513.0,513.0,513.0,513.0,513.0,511.0,511.0,511.0,511.0,511.0,511.0,511.0,511.0,511.0,511.0,504.0,504.0,504.0,504.0,504.0,504.0,504.0,504.0,504.0,504.0,509.0,509.0,509.0,509.0,509.0,509.0,509.0,509.0,509.0,511.0,507.0,507.0,507.0,507.0,507.0,507.0,507.0,507.0,507.0,507.0,501.0,501.0,501.0,501.0,501.0,501.0,501.0,501.0,501.0,494.0,513.0,509.0,507.0,500,500,500,2.0,11.0,6.0
0,511.6666666666667,509.9,500.26666666666665,511.0,509.0,494.0,511.0,511.0,511.0,511.0,511.0,511.0,511.0,511.0,511.0,514.0,514.0,514.0,514.0,514.0,514.0,514.0,514.0,514.0,514.0,514.0,509.0,509.0,509.0,511.0,511.0,511.0,511.0,511.0,511.0,511.0,511.0,511.0,511.0,511.0,511.0,511.0,511.0,511.0,511.0,511.0,501.0,501.0,501.0,494.0,494.0,494.0,494.0,494.0,494.0,508.0,508.0,508.0,508.0,508.0,508.0,508.0,508.0,508.0,508.0,508.0,514.0,511.0,508.0,500,500,500,3.0,7.0,14.0
0,513.0333333333333,507.26666666666665,506.06666666666666,512.0,483.0,508.0,514.0,514.0,514.0,514.0,514.0,514.0,514.0,514.0,514.0,514.0,514.0,514.0,514.0,514.0,514.0,512.0,512.0,512.0,512.0,512.0,511.0,511.0,511.0,511.0,511.0,511.0,511.0,511.0,511.0,511.0,511.0,511.0,511.0,511.0,511.0,483.0,483.0,483.0,483.0,483.0,508.0,508.0,508.0,508.0,508.0,508.0,508.0,508.0,508.0,508.0,508.0,508.0,508.0,508.0,508.0,518.0,518.0,518.0,518.0,518.0,514.0,511.0,518.0,500,500,500,3.0,28.0,24.0
0,512.7333333333333,493.26666666666665,514.3333333333334,512.0,483.0,508.0,514.0,512.0,512.0,512.0,512.0,512.0,512.0,512.0,512.0,512.0,512.0,512.0,512.0,512.0,512.0,512.0,512.0,512.0,512.0,512.0,511.0,483.0,483.0,483.0,483.0,483.0,483.0,483.0,483.0,483.0,483.0,483.0,483.0,483.0,483.0,483.0,483.0,483.0,483.0,483.0,508.0,518.0,518.0,518.0,518.0,518.0,518.0,518.0,518.0,518.0,518.0,518.0,518.0,518.0,518.0,518.0,518.0,518.0,518.0,518.0,514.0,511.0,518.0,500,500,500,2.0,28.0,10.0
0,507.2,482.0,513.3333333333334,504.0,470.0,508.0,506.0,506.0,506.0,506.0,506.0,506.0,506.0,506.0,506.0,506.0,506.0,506.0,506.0,506.0,504.0,504.0,504.0,504.0,504.0,504.0,486.0,486.0,486.0,486.0,486.0,486.0,486.0,486.0,486.0,486.0,486.0,486.0,486.0,486.0,470.0,470.0,470.0,470.0,470.0,470.0,513.0,513.0,513.0,513.0,513.0,513.0,513.0,513.0,513.0,513.0,513.0,513.0,513.0,513.0,508.0,508.0,508.0,508.0,508.0,508.0,506.0,486.0,513.0,500,500,500,8.0,16.0,10.0
0,505.0,478.0,510.5,504.0,470.0,508.0,506.0,506.0,506.0,506.0,506.0,504.0,504.0,504.0,504.0,504.0,504.0,504.0,504.0,504.0,504.0,504.0,504.0,504.0,504.0,504.0,486.0,486.0,486.0,486.0,486.0,470.0,470.0,470.0,470.0,470.0,470.0,470.0,470.0,470.0,470.0,470.0,470.0,470.0,470.0,470.0,513.0,513.0,513.0,513.0,513.0,508.0,508.0,508.0,508.0,508.0,508.0,508.0,508.0,508.0,508.0,508.0,508.0,508.0,508.0,508.0,506.0,486.0,513.0,500,500,500,2.0,16.0,5.0
0,501.76666666666665,472.3,504.76666666666665,499.0,470.0,501.0,504.0,504.0,504.0,504.0,500.0,500.0,500.0,500.0,500.0,500.0,500.0,500.0,500.0,500.0,500.0,500.0,499.0,499.0,499.0,499.0,470.0,470.0,470.0,470.0,470.0,470.0,470.0,470.0,470.0,470.0,470.0,470.0,470.0,470.0,470.0,470.0,493.0,493.0,493.0,493.0,508.0,508.0,508.0,508.0,501.0,501.0,501.0,501.0,501.0,501.0,501.0,501.0,501.0,501.0,501.0,506.0,506.0,506.0,506.0,506.0,504.0,493.0,508.0,500,500,500,5.0,23.0,7.0
0,499.53333333333336,505.8,504.93333333333334,499.0,493.0,504.0,499.0,499.0,499.0,500.0,500.0,500.0,500.0,500.0,500.0,500.0,500.0,500.0,500.0,500.0,500.0,500.0,500.0,500.0,500.0,500.0,493.0,493.0,493.0,517.0,517.0,517.0,517.0,517.0,517.0,517.0,517.0,517.0,517.0,517.0,517.0,517.0,517.0,517.0,517.0,517.0,506.0,506.0,506.0,504.0,504.0,504.0,504.0,504.0,504.0,504.0,504.0,504.0,504.0,504.0,504.0,504.0,504.0,504.0,504.0,504.0,500.0,517.0,506.0,500,500,500,1.0,24.0,2.0
0,500.43333333333334,521.2333333333333,501.1333333333333,497.0,522.0,499.0,502.0,502.0,502.0,502.0,502.0,502.0,502.0,502.0,502.0,502.0,502.0,502.0,502.0,497.0,497.0,497.0,497.0,497.0,497.0,497.0,522.0,522.0,522.0,522.0,522.0,522.0,522.0,522.0,522.0,522.0,522.0,522.0,522.0,523.0,523.0,523.0,523.0,523.0,523.0,523.0,501.0,501.0,501.0,501.0,501.0,501.0,501.0,501.0,501.0,501.0,501.0,501.0,501.0,499.0,499.0,499.0,499.0,499.0,499.0,499.0,502.0,523.0,501.0,500,500,500,5.0,6.0,5.0
0,498.1333333333333,522.4,500.6666666666667,497.0,521.0,499.0,497.0,497.0,497.0,497.0,497.0,497.0,497.0,497.0,497.0,497.0,497.0,497.0,499.0,499.0,499.0,499.0,499.0,499.0,499.0,499.0,523.0,523.0,523.0,523.0,523.0,523.0,523.0,523.0,523.0,523.0,523.0,523.0,521.0,521.0,521.0,521.0,521.0,521.0,521.0,521.0,499.0,499.0,499.0,499.0,499.0,499.0,499.0,499.0,499.0,499.0,499.0,499.0,505.0,505.0,505.0,505.0,505.0,505.0,505.0,505.0,499.0,523.0,505.0,500,500,500,5.0,2.0,6.0
0,503.0,523.3666666666667,504.1,503.0,523.0,503.0,503.0,503.0,503.0,503.0,503.0,503.0,503.0,503.0,503.0,503.0,503.0,503.0,503.0,503.0,503.0,503.0,503.0,503.0,503.0,503.0,523.0,523.0,523.0,523.0,523.0,523.0,523.0,523.0,523.0,524.0,524.0,524.0,524.0,524.0,524.0,524.0,524.0,524.0,524.0,524.0,503.0,503.0,503.0,503.0,503.0,503.0,503.0,503.0,503.0,506.0,506.0,506.0,506.0,506.0,506.0,506.0,506.0,506.0,506.0,506.0,503.0,524.0,506.0,500,500,500,0.0,1.0,3.0
0,504.6,523.6,507.2,503.0,523.0,506.0,503.0,503.0,503.0,503.0,503.0,503.0,503.0,507.0,507.0,507.0,507.0,507.0,507.0,507.0,507.0,507.0,507.0,507.0,507.0,507.0,524.0,524.0,524.0,524.0,524.0,524.0,524.0,523.0,523.0,523.0,523.0,523.0,523.0,523.0,523.0,523.0,523.0,523.0,523.0,523.0,506.0,506.0,506.0,506.0,506.0,506.0,506.0,509.0,509.0,509.0,509.0,509.0,509.0,509.0,509.0,509.0,509.0,509.0,509.0,509.0,507.0,524.0,509.0,500,500,500,4.0,1.0,3.0
0,507.26666666666665,519.4333333333333,507.7,507.0,505.0,503.0,507.0,507.0,507.0,507.0,507.0,507.0,507.0,507.0,507.0,507.0,507.0,507.0,507.0,507.0,509.0,509.0,509.0,509.0,509.0,509.0,523.0,523.0,523.0,523.0,523.0,523.0,523.0,523.0,523.0,523.0,523.0,523.0,523.0,523.0,505.0,505.0,505.0,505.0,505.0,505.0,509.0,509.0,509.0,509.0,509.0,509.0,509.0,509.0,509.0,509.0,509.0,509.0,509.0,509.0,503.0,503.0,503.0,503.0,503.0,503.0,509.0,523.0,509.0,500,500,500,6.0,19.0,6.0
0,508.6,510.2,505.26666666666665,509.0,505.0,503.0,509.0,509.0,509.0,509.0,509.0,509.0,509.0,509.0,509.0,509.0,509.0,509.0,509.0,510.0,510.0,510.0,510.0,510.0,510.0,510.0,505.0,505.0,505.0,505.0,505.0,505.0,505.0,505.0,505.0,505.0,505.0,505.0,505.0,508.0,508.0,508.0,508.0,508.0,508.0,508.0,503.0,503.0,503.0,503.0,503.0,503.0,503.0,503.0,503.0,503.0,503.0,503.0,503.0,508.0,508.0,508.0,508.0,508.0,508.0,508.0,510.0,508.0,508.0,500,500,500,3.0,18.0,6.0
0,510.46666666666664,500.76666666666665,509.1666666666667,510.0,477.0,508.0,510.0,510.0,510.0,510.0,510.0,510.0,510.0,510.0,510.0,510.0,510.0,510.0,512.0,512.0,512.0,512.0,512.0,512.0,512.0,512.0,508.0,508.0,508.0,508.0,508.0,508.0,508.0,508.0,508.0,508.0,508.0,508.0,477.0,477.0,477.0,477.0,477.0,477.0,477.0,477.0,508.0,508.0,508.0,508.0,508.0,508.0,508.0,508.0,508.0,508.0,508.0,508.0,513.0,513.0,513.0,513.0,513.0,513.0,513.0,513.0,512.0,508.0,513.0,500,500,500,2.0,31.0,5.0
0,511.73333333333335,481.1333333333333,512.3333333333334,512.0,477.0,513.0,512.0,512.0,512.0,512.0,512.0,512.0,512.0,512.0,512.0,512.0,512.0,512.0,512.0,512.0,512.0,512.0,512.0,512.0,512.0,514.0,477.0,477.0,477.0,477.0,477.0,477.0,477.0,477.0,477.0,477.0,477.0,477.0,477.0,477.0,477.0,477.0,477.0,477.0,477.0,528.0,513.0,513.0,513.0,513.0,513.0,513.0,513.0,513.0,513.0,513.0,513.0,513.0,513.0,513.0,513.0,513.0,513.0,513.0,510.0,510.0,512.0,477.0,513.0,500,500,500,2.0,31.0,5.0
0,513.1333333333333,505.9,511.3,512.0,477.0,510.0,512.0,512.0,514.0,514.0,514.0,514.0,514.0,514.0,514.0,514.0,514.0,514.0,514.0,514.0,514.0,514.0,514.0,514.0,514.0,514.0,477.0,477.0,528.0,528.0,528.0,528.0,528.0,528.0,528.0,528.0,528.0,528.0,528.0,528.0,528.0,528.0,528.0,528.0,528.0,528.0,513.0,513.0,510.0,510.0,510.0,510.0,510.0,510.0,510.0,510.0,510.0,510.0,510.0,510.0,510.0,510.0,510.0,510.0,510.0,510.0,514.0,528.0,513.0,500,500,500,2.0,51.0,3.0
0,512.2,527.4,508.4,511.0,517.0,503.0,514.0,514.0,511.0,511.0,511.0,511.0,511.0,511.0,511.0,511.0,511.0,511.0,511.0,511.0,511.0,511.0,511.0,511.0,511.0,511.0,528.0,528.0,532.0,532.0,532.0,532.0,532.0,532.0,532.0,532.0,532.0,532.0,532.0,517.0,517.0,517.0,517.0,517.0,517.0,517.0,510.0,510.0,503.0,503.0,503.0,503.0,503.0,503.0,503.0,503.0,503.0,503.0,503.0,516.0,516.0,516.0,516.0,516.0,516.0,516.0,514.0,532.0,516.0,500,500,500,3.0,15.0,13.0
0,511.0,521.5,512.5333333333333,511.0,517.0,516.0,511.0,511.0,511.0,511.0,511.0,511.0,511.0,511.0,511.0,511.0,511.0,511.0,511.0,511.0,511.0,511.0,511.0,511.0,511.0,511.0,517.0,517.0,517.0,517.0,517.0,517.0,517.0,517.0,517.0,517.0,517.0,517.0,517.0,517.0,517.0,517.0,517.0,517.0,517.0,517.0,516.0,516.0,516.0,516.0,516.0,516.0,516.0,516.0,516.0,516.0,516.0,516.0,516.0,516.0,516.0,516.0,516.0,516.0,516.0,516.0,511.0,517.0,516.0,500,500,500,0.0,15.0,13.0
0,509.93333333333334,488.43333333333334,515.1333333333333,509.0,460.0,513.0,511.0,511.0,511.0,511.0,509.0,509.0,509.0,509.0,509.0,509.0,509.0,509.0,509.0,509.0,509.0,509.0,509.0,509.0,509.0,509.0,517.0,517.0,517.0,517.0,465.0,465.0,465.0,465.0,465.0,465.0,465.0,465.0,465.0,465.0,460.0,460.0,460.0,460.0,460.0,460.0,516.0,516.0,516.0,516.0,515.0,515.0,515.0,515.0,515.0,515.0,515.0,515.0,515.0,515.0,513.0,513.0,513.0,513.0,513.0,513.0,511.0,517.0,516.0,500,500,500,2.0,57.0,3.0
0,509.53333333333336,477.03333333333336,514.5333333333333,509.0,460.0,513.0,509.0,509.0,509.0,509.0,509.0,509.0,509.0,509.0,509.0,509.0,509.0,509.0,509.0,509.0,509.0,509.0,509.0,509.0,509.0,509.0,465.0,465.0,465.0,465.0,465.0,465.0,465.0,465.0,460.0,460.0,460.0,460.0,460.0,460.0,460.0,460.0,460.0,460.0,460.0,460.0,515.0,515.0,515.0,515.0,515.0,515.0,515.0,515.0,513.0,513.0,513.0,513.0,513.0,513.0,513.0,513.0,513.0,513.0,513.0,513.0,509.0,465.0,515.0,500,500,500,2.0,57.0,3.0
0,508.6666666666667,467.6,512.5333333333333,506.0,460.0,509.0,509.0,509.0,509.0,509.0,509.0,509.0,509.0,509.0,508.0,508.0,508.0,508.0,508.0,508.0,508.0,508.0,508.0,508.0,506.0,506.0,460.0,460.0,460.0,460.0,460.0,460.0,460.0,460.0,476.0,476.0,476.0,476.0,476.0,476.0,476.0,476.0,476.0,476.0,503.0,503.0,513.0,513.0,513.0,513.0,513.0,513.0,513.0,513.0,511.0,511.0,511.0,511.0,511.0,511.0,511.0,511.0,511.0,511.0,509.0,509.0,509.0,503.0,513.0,500,500,500,1.0,16.0,4.0
0,506.96666666666664,488.2,507.56666666666666,506.0,476.0,494.0,508.0,508.0,508.0,506.0,506.0,506.0,506.0,506.0,506.0,506.0,506.0,506.0,506.0,506.0,506.0,506.0,506.0,506.0,506.0,506.0,476.0,476.0,476.0,503.0,503.0,503.0,503.0,503.0,503.0,503.0,503.0,503.0,503.0,503.0,503.0,494.0,494.0,494.0,494.0,494.0,511.0,511.0,511.0,509.0,509.0,509.0,509.0,509.0,509.0,509.0,509.0,509.0,509.0,509.0,509.0,494.0,494.0,494.0,494.0,494.0,508.0,503.0,511.0,500,500,500,3.0,43.0,19.0
0,506.4,494.0,503.4,506.0,494.0,494.0,506.0,506.0,506.0,506.0,506.0,506.0,506.0,506.0,506.0,506.0,506.0,506.0,506.0,506.0,506.0,506.0,506.0,506.0,506.0,506.0,503.0,503.0,503.0,503.0,503.0,503.0,503.0,503.0,494.0,494.0,494.0,494.0,494.0,494.0,494.0,494.0,494.0,494.0,494.0,494.0,509.0,509.0,509.0,509.0,509.0,509.0,509.0,509.0,494.0,494.0,494.0,494.0,494.0,494.0,494.0,494.0,494.0,494.0,494.0,494.0,506.0,503.0,509.0,500,500,500,2.0,27.0,17.0
0,509.46666666666664,511.0,498.93333333333334,506.0,494.0,494.0,506.0,506.0,506.0,506.0,506.0,513.0,513.0,513.0,513.0,513.0,513.0,513.0,513.0,513.0,513.0,516.0,516.0,516.0,516.0,516.0,494.0,494.0,494.0,494.0,494.0,528.0,528.0,528.0,528.0,528.0,528.0,528.0,528.0,528.0,528.0,527.0,527.0,527.0,527.0,527.0,494.0,494.0,494.0,494.0,494.0,499.0,499.0,499.0,499.0,499.0,499.0,499.0,499.0,499.0,499.0,508.0,508.0,508.0,508.0,508.0,516.0,528.0,508.0,500,500,500,10.0,34.0,15.0
0,514.1333333333333,525.2,504.0,513.0,527.0,499.0,513.0,513.0,513.0,513.0,516.0,516.0,516.0,516.0,516.0,516.0,516.0,516.0,516.0,516.0,516.0,516.0,516.0,516.0,516.0,516.0,528.0,528.0,528.0,528.0,527.0,527.0,527.0,527.0,527.0,527.0,527.0,527.0,527.0,527.0,527.0,527.0,527.0,527.0,527.0,527.0,499.0,499.0,499.0,499.0,508.0,508.0,508.0,508.0,508.0,508.0,508.0,508.0,508.0,508.0,508.0,508.0,512.0,512.0,512.0,512.0,516.0,528.0,512.0,500,500,500,10.0,34.0,18.0
0,515.7,527.1,509.1,516.0,527.0,508.0,516.0,516.0,516.0,516.0,516.0,516.0,516.0,516.0,516.0,516.0,516.0,516.0,516.0,516.0,516.0,516.0,516.0,516.0,516.0,516.0,527.0,527.0,527.0,527.0,527.0,527.0,527.0,527.0,527.0,527.0,527.0,527.0,527.0,527.0,527.0,527.0,527.0,527.0,527.0,527.0,508.0,508.0,508.0,508.0,508.0,512.0,512.0,512.0,512.0,512.0,512.0,512.0,512.0,512.0,512.0,512.0,512.0,512.0,512.0,512.0,516.0,527.0,512.0,500,500,500,3.0,1.0,13.0
0,511.6,507.4,513.6,506.0,493.0,512.0,516.0,516.0,514.0,514.0,514.0,514.0,514.0,514.0,506.0,506.0,506.0,506.0,506.0,506.0,506.0,506.0,506.0,506.0,506.0,506.0,527.0,527.0,497.0,497.0,497.0,497.0,497.0,497.0,493.0,493.0,493.0,493.0,493.0,493.0,493.0,493.0,493.0,493.0,493.0,493.0,512.0,512.0,514.0,514.0,514.0,514.0,514.0,514.0,515.0,515.0,515.0,515.0,515.0,515.0,515.0,515.0,515.0,515.0,515.0,515.0,516.0,527.0,515.0,500,500,500,10.0,34.0,3.0
0,503.6,495.1666666666667,514.5666666666667,500.0,493.0,514.0,506.0,506.0,506.0,506.0,506.0,500.0,500.0,500.0,500.0,500.0,500.0,500.0,500.0,500.0,500.0,500.0,500.0,500.0,500.0,500.0,493.0,493.0,493.0,493.0,493.0,498.0,498.0,498.0,498.0,498.0,498.0,498.0,498.0,498.0,498.0,498.0,498.0,498.0,498.0,498.0,515.0,515.0,515.0,515.0,515.0,514.0,514.0,514.0,514.0,514.0,514.0,514.0,514.0,514.0,514.0,514.0,514.0,514.0,514.0,514.0,506.0,498.0,515.0,500,500,500,6.0,5.0,1.0
0,499.4,498.9,512.2,498.0,498.0,508.0,500.0,500.0,500.0,500.0,500.0,500.0,500.0,500.0,500.0,500.0,500.0,498.0,498.0,498.0,498.0,498.0,498.0,498.0,498.0,498.0,498.0,498.0,498.0,498.0,498.0,498.0,498.0,498.0,498.0,498.0,498.0,501.0,501.0,501.0,501.0,501.0,501.0,501.0,501.0,501.0,514.0,514.0,514.0,514.0,514.0,514.0,514.0,514.0,514.0,514.0,514.0,508.0,508.0,508.0,508.0,508.0,508.0,508.0,508.0,508.0,500.0,501.0,514.0,500,500,500,2.0,3.0,6.0
0,498.46666666666664,505.1,509.8,498.0,501.0,508.0,498.0,498.0,498.0,498.0,498.0,498.0,498.0,498.0,498.0,498.0,498.0,498.0,498.0,498.0,498.0,498.0,498.0,498.0,498.0,498.0,501.0,501.0,501.0,501.0,501.0,501.0,501.0,501.0,501.0,501.0,501.0,501.0,501.0,525.0,525.0,525.0,525.0,525.0,525.0,525.0,508.0,508.0,508.0,508.0,508.0,508.0,508.0,508.0,508.0,508.0,508.0,508.0,508.0,510.0,510.0,510.0,510.0,510.0,510.0,510.0,498.0,525.0,510.0,500,500,500,2.0,27.0,6.0
0,498.0,516.2,509.26666666666665,498.0,501.0,508.0,498.0,498.0,498.0,498.0,498.0,498.0,498.0,498.0,498.0,498.0,498.0,498.0,498.0,498.0,498.0,498.0,498.0,498.0,498.0,498.0,501.0,525.0,525.0,525.0,525.0,525.0,525.0,525.0,525.0,525.0,525.0,525.0,525.0,525.0,525.0,525.0,525.0,525.0,525.0,525.0,508.0,510.0,510.0,510.0,510.0,510.0,510.0,510.0,510.0,510.0,510.0,510.0,510.0,510.0,510.0,510.0,510.0,510.0,510.0,510.0,498.0,525.0,510.0,500,500,500,0.0,24.0,2.0
0,499.73333333333335,521.9333333333333,508.1333333333333,498.0,508.0,500.0,498.0,498.0,498.0,498.0,498.0,498.0,501.0,501.0,501.0,501.0,501.0,501.0,501.0,501.0,505.0,505.0,505.0,505.0,505.0,505.0,525.0,525.0,525.0,525.0,525.0,525.0,522.0,522.0,522.0,522.0,522.0,522.0,522.0,522.0,508.0,508.0,508.0,508.0,508.0,508.0,510.0,510.0,510.0,510.0,510.0,510.0,508.0,508.0,508.0,508.0,508.0,508.0,508.0,508.0,500.0,500.0,500.0,500.0,500.0,500.0,505.0,525.0,510.0,500,500,500,7.0,17.0,10.0
0,503.73333333333335,514.9333333333333,503.6333333333333,501.0,508.0,500.0,501.0,505.0,505.0,505.0,505.0,505.0,505.0,505.0,505.0,505.0,505.0,505.0,505.0,505.0,505.0,508.0,508.0,508.0,508.0,508.0,522.0,508.0,508.0,508.0,508.0,508.0,508.0,508.0,508.0,508.0,508.0,508.0,508.0,508.0,508.0,517.0,517.0,517.0,517.0,517.0,508.0,500.0,500.0,500.0,500.0,500.0,500.0,500.0,500.0,500.0,500.0,500.0,500.0,500.0,500.0,503.0,503.0,503.0,503.0,503.0,508.0,522.0,508.0,500,500,500,10.0,17.0,10.0
0,506.1,511.0,502.7,505.0,494.0,500.0,505.0,505.0,505.0,505.0,505.0,505.0,508.0,508.0,508.0,508.0,508.0,508.0,508.0,508.0,508.0,508.0,510.0,510.0,510.0,510.0,508.0,508.0,508.0,508.0,508.0,508.0,517.0,517.0,517.0,517.0,517.0,517.0,517.0,517.0,517.0,517.0,494.0,494.0,494.0,494.0,500.0,500.0,500.0,500.0,500.0,500.0,503.0,503.0,503.0,503.0,503.0,503.0,503.0,503.0,503.0,503.0,509.0,509.0,509.0,509.0,510.0,517.0,509.0,500,500,500,9.0,28.0,9.0
0,508.8333333333333,500.2,506.6333333333333,508.0,474.0,503.0,508.0,508.0,508.0,508.0,510.0,510.0,510.0,510.0,510.0,510.0,510.0,510.0,510.0,510.0,510.0,511.0,511.0,511.0,511.0,511.0,517.0,517.0,517.0,517.0,494.0,494.0,494.0,494.0,494.0,494.0,494.0,494.0,494.0,494.0,494.0,474.0,474.0,474.0,474.0,474.0,503.0,503.0,503.0,503.0,509.0,509.0,509.0,509.0,509.0,509.0,509.0,509.0,509.0,509.0,509.0,514.0,514.0,514.0,514.0,514.0,511.0,517.0,514.0,500,500,500,6.0,43.0,14.0
0,510.3333333333333,483.5,511.4,508.0,474.0,508.0,510.0,510.0,511.0,511.0,511.0,511.0,511.0,511.0,511.0,511.0,511.0,511.0,511.0,511.0,511.0,511.0,511.0,511.0,508.0,508.0,494.0,494.0,474.0,474.0,474.0,474.0,474.0,474.0,474.0,474.0,474.0,474.0,474.0,474.0,474.0,474.0,474.0,474.0,485.0,485.0,509.0,509.0,514.0,514.0,514.0,514.0,514.0,514.0,514.0,514.0,514.0,514.0,514.0,514.0,514.0,514.0,514.0,514.0,508.0,508.0,511.0,494.0,514.0,500,500,500,3.0,43.0,11.0
0,509.6666666666667,480.3333333333333,509.3333333333333,508.0,482.0,506.0,508.0,508.0,508.0,508.0,508.0,508.0,508.0,508.0,508.0,508.0,510.0,510.0,510.0,510.0,510.0,510.0,510.0,510.0,510.0,510.0,485.0,485.0,485.0,485.0,485.0,485.0,485.0,485.0,485.0,485.0,482.0,482.0,482.0,482.0,482.0,482.0,482.0,482.0,482.0,482.0,508.0,508.0,508.0,508.0,508.0,508.0,508.0,508.0,508.0,508.0,506.0,506.0,506.0,506.0,506.0,506.0,506.0,506.0,506.0,506.0,510.0,485.0,508.0,500,500,500,3.0,11.0,8.0
0,509.2,484.0,506.0,508.0,482.0,502.0,510.0,510.0,510.0,510.0,510.0,510.0,510.0,510.0,510.0,510.0,510.0,510.0,510.0,510.0,510.0,508.0,508.0,508.0,508.0,508.0,482.0,482.0,482.0,482.0,482.0,482.0,482.0,482.0,482.0,482.0,482.0,482.0,482.0,482.0,482.0,491.0,491.0,491.0,491.0,491.0,506.0,506.0,506.0,506.0,506.0,506.0,506.0,506.0,506.0,506.0,506.0,506.0,506.0,506.0,506.0,502.0,502.0,502.0,502.0,502.0,510.0,491.0,506.0,500,500,500,2.0,9.0,6.0
0,509.5,492.5,502.9,508.0,491.0,501.0,508.0,508.0,508.0,508.0,508.0,508.0,508.0,508.0,508.0,511.0,511.0,511.0,511.0,511.0,511.0,511.0,511.0,511.0,511.0,511.0,491.0,491.0,491.0,491.0,491.0,491.0,491.0,491.0,491.0,505.0,505.0,505.0,505.0,505.0,505.0,505.0,505.0,505.0,505.0,505.0,502.0,502.0,502.0,502.0,502.0,502.0,502.0,502.0,502.0,501.0,501.0,501.0,501.0,501.0,501.0,501.0,501.0,501.0,501.0,501.0,511.0,505.0,502.0,500,500,500,3.0,23.0,5.0
0,511.0,507.8,501.5,511.0,505.0,501.0,511.0,511.0,511.0,511.0,511.0,511.0,511.0,511.0,511.0,511.0,511.0,511.0,511.0,511.0,511.0,511.0,511.0,511.0,511.0,511.0,505.0,505.0,505.0,505.0,511.0,511.0,511.0,511.0,511.0,511.0,511.0,511.0,511.0,511.0,511.0,511.0,511.0,511.0,511.0,511.0,501.0,501.0,501.0,501.0,502.0,502.0,502.0,502.0,502.0,502.0,502.0,502.0,502.0,502.0,502.0,502.0,502.0,502.0,502.0,502.0,511.0,511.0,502.0,500,500,500,0.0,6.0,1.0
0,510.3333333333333,509.1333333333333,503.6,508.0,503.0,502.0,511.0,511.0,511.0,511.0,511.0,511.0,511.0,511.0,511.0,511.0,511.0,511.0,509.0,509.0,509.0,509.0,508.0,508.0,508.0,508.0,511.0,511.0,511.0,511.0,511.0,511.0,511.0,511.0,511.0,511.0,511.0,511.0,503.0,503.0,503.0,503.0,505.0,505.0,505.0,505.0,502.0,502.0,502.0,502.0,502.0,502.0,502.0,502.0,502.0,502.0,502.0,502.0,503.0,503.0,503.0,503.0,513.0,513.0,513.0,513.0,511.0,511.0,513.0,500,500,500,3.0,8.0,11.0
0,509.3333333333333,506.3,510.1,508.0,503.0,503.0,508.0,508.0,508.0,508.0,508.0,508.0,508.0,508.0,508.0,508.0,508.0,508.0,508.0,511.0,511.0,511.0,511.0,511.0,511.0,511.0,505.0,505.0,505.0,505.0,505.0,505.0,505.0,505.0,505.0,505.0,505.0,505.0,505.0,506.0,506.0,506.0,506.0,506.0,506.0,506.0,513.0,513.0,513.0,513.0,513.0,513.0,513.0,513.0,513.0,513.0,513.0,513.0,513.0,519.0,519.0,519.0,519.0,519.0,519.0,519.0,511.0,506.0,519.0,500,500,500,3.0,8.0,17.0
0,511.7,506.3666666666667,516.8,511.0,506.0,514.0,511.0,511.0,511.0,511.0,511.0,511.0,511.0,513.0,513.0,513.0,513.0,513.0,513.0,513.0,513.0,513.0,513.0,513.0,513.0,513.0,506.0,506.0,506.0,506.0,506.0,506.0,506.0,507.0,507.0,507.0,507.0,507.0,507.0,507.0,507.0,507.0,507.0,507.0,507.0,507.0,519.0,519.0,519.0,519.0,519.0,519.0,519.0,514.0,514.0,514.0,514.0,514.0,514.0,514.0,514.0,514.0,514.0,514.0,514.0,514.0,513.0,507.0,519.0,500,500,500,5.0,2.0,6.0
0,511.4,501.1666666666667,510.56666666666666,510.0,494.0,506.0,513.0,513.0,513.0,513.0,510.0,510.0,510.0,510.0,510.0,510.0,510.0,510.0,510.0,510.0,510.0,510.0,510.0,510.0,510.0,510.0,507.0,507.0,507.0,507.0,494.0,494.0,494.0,494.0,494.0,497.0,497.0,497.0,497.0,497.0,497.0,497.0,497.0,497.0,497.0,497.0,514.0,514.0,514.0,514.0,511.0,511.0,511.0,511.0,511.0,506.0,506.0,506.0,506.0,506.0,506.0,506.0,506.0,506.0,506.0,506.0,513.0,507.0,514.0,500,500,500,3.0,13.0,8.0
0,510.4,499.5,508.73333333333335,510.0,497.0,506.0,510.0,510.0,510.0,510.0,510.0,510.0,510.0,510.0,510.0,510.0,510.0,510.0,510.0,510.0,510.0,510.0,510.0,510.0,510.0,510.0,497.0,497.0,497.0,497.0,497.0,497.0,497.0,497.0,497.0,497.0,497.0,497.0,507.0,507.0,507.0,507.0,507.0,507.0,507.0,507.0,506.0,506.0,506.0,506.0,506.0,506.0,506.0,506.0,506.0,506.0,506.0,506.0,511.0,511.0,511.0,511.0,511.0,511.0,511.0,511.0,510.0,507.0,511.0,500,500,500,3.0,13.0,8.0
0,509.8333333333333,506.8333333333333,510.5,509.0,507.0,511.0,510.0,510.0,510.0,510.0,510.0,510.0,510.0,510.0,510.0,510.0,510.0,510.0,510.0,510.0,510.0,509.0,509.0,509.0,509.0,509.0,507.0,507.0,507.0,507.0,507.0,507.0,507.0,507.0,507.0,507.0,507.0,507.0,507.0,507.0,507.0,518.0,518.0,518.0,518.0,518.0,511.0,511.0,511.0,511.0,511.0,511.0,511.0,511.0,511.0,511.0,511.0,511.0,511.0,511.0,511.0,514.0,514.0,514.0,514.0,514.0,510.0,518.0,514.0,500,500,500,1.0,21.0,8.0
0,509.4,515.4666666666667,513.7333333333333,509.0,507.0,511.0,510.0,510.0,509.0,509.0,509.0,509.0,509.0,509.0,509.0,509.0,509.0,509.0,509.0,509.0,509.0,509.0,509.0,509.0,509.0,509.0,507.0,507.0,518.0,518.0,518.0,518.0,518.0,518.0,518.0,518.0,518.0,518.0,526.0,526.0,526.0,526.0,526.0,526.0,526.0,526.0,511.0,511.0,514.0,514.0,514.0,514.0,514.0,514.0,514.0,514.0,514.0,514.0,518.0,518.0,518.0,518.0,518.0,518.0,518.0,518.0,510.0,526.0,518.0,500,500,500,1.0,19.0,7.0
0,508.0,526.6666666666666,515.6666666666666,506.0,526.0,513.0,509.0,509.0,509.0,509.0,509.0,509.0,509.0,509.0,509.0,509.0,506.0,506.0,506.0,506.0,506.0,506.0,506.0,506.0,506.0,506.0,526.0,526.0,526.0,526.0,526.0,526.0,526.0,526.0,526.0,526.0,532.0,532.0,532.0,532.0,532.0,532.0,532.0,532.0,532.0,532.0,518.0,518.0,518.0,518.0,518.0,518.0,518.0,518.0,518.0,518.0,513.0,513.0,513.0,513.0,513.0,513.0,513.0,513.0,513.0,513.0,509.0,532.0,518.0,500,500,500,3.0,14.0,5.0
0,507.2,533.2,515.9333333333333,506.0,526.0,513.0,509.0,509.0,506.0,506.0,506.0,506.0,506.0,506.0,506.0,506.0,506.0,506.0,506.0,506.0,506.0,506.0,506.0,506.0,506.0,506.0,526.0,526.0,532.0,532.0,532.0,532.0,532.0,532.0,532.0,532.0,532.0,532.0,532.0,532.0,559.0,559.0,559.0,559.0,559.0,559.0,518.0,518.0,513.0,513.0,513.0,513.0,513.0,513.0,513.0,513.0,513.0,513.0,513.0,513.0,520.0,520.0,520.0,520.0,520.0,520.0,509.0,559.0,520.0,500,500,500,3.0,33.0,7.0
0,506.03333333333336,549.0,517.5666666666667,506.0,532.0,513.0,506.0,506.0,506.0,506.0,506.0,506.0,506.0,506.0,506.0,506.0,506.0,506.0,506.0,506.0,506.0,506.0,507.0,507.0,507.0,507.0,532.0,559.0,559.0,559.0,559.0,559.0,559.0,559.0,559.0,559.0,559.0,559.0,559.0,559.0,559.0,559.0,556.0,556.0,556.0,556.0,513.0,520.0,520.0,520.0,520.0,520.0,520.0,520.0,520.0,520.0,520.0,520.0,520.0,520.0,520.0,520.0,524.0,524.0,524.0,524.0,507.0,559.0,524.0,500,500,500,1.0,27.0,11.0
0,506.73333333333335,556.2,522.0666666666667,506.0,541.0,519.0,506.0,506.0,507.0,507.0,507.0,507.0,507.0,507.0,507.0,507.0,507.0,507.0,507.0,507.0,507.0,507.0,507.0,509.0,509.0,509.0,559.0,559.0,556.0,556.0,556.0,556.0,556.0,556.0,556.0,556.0,556.0,556.0,556.0,556.0,556.0,556.0,556.0,541.0,541.0,541.0,520.0,520.0,524.0,524.0,524.0,524.0,524.0,524.0,524.0,524.0,524.0,524.0,524.0,524.0,524.0,524.0,524.0,519.0,519.0,519.0,509.0,559.0,524.0,500,500,500,3.0,18.0,5.0
0,507.8666666666667,539.1,519.2333333333333,507.0,532.0,518.0,509.0,509.0,509.0,509.0,509.0,509.0,507.0,507.0,507.0,507.0,507.0,507.0,507.0,507.0,507.0,507.0,507.0,507.0,507.0,507.0,541.0,541.0,541.0,541.0,541.0,541.0,532.0,532.0,532.0,532.0,532.0,532.0,532.0,532.0,532.0,532.0,532.0,532.0,532.0,532.0,519.0,519.0,519.0,519.0,519.0,519.0,518.0,518.0,518.0,518.0,518.0,518.0,518.0,518.0,518.0,518.0,518.0,518.0,518.0,518.0,509.0,541.0,519.0,500,500,500,2.0,24.0,6.0
0,507.1333333333333,526.2666666666667,516.4,507.0,514.0,514.0,507.0,507.0,507.0,507.0,507.0,507.0,507.0,507.0,508.0,508.0,508.0,508.0,507.0,507.0,507.0,507.0,507.0,507.0,507.0,507.0,532.0,532.0,532.0,532.0,532.0,532.0,532.0,532.0,525.0,525.0,525.0,525.0,514.0,514.0,514.0,514.0,514.0,514.0,514.0,514.0,518.0,518.0,518.0,518.0,518.0,518.0,518.0,518.0,514.0,514.0,514.0,514.0,514.0,514.0,514.0,514.0,514.0,514.0,514.0,514.0,508.0,532.0,518.0,500,500,500,1.0,18.0,4.0
0,506.8,518.8333333333334,514.2666666666667,505.0,509.0,510.0,507.0,507.0,507.0,507.0,507.0,507.0,507.0,507.0,507.0,507.0,507.0,507.0,507.0,507.0,505.0,505.0,505.0,505.0,505.0,505.0,514.0,514.0,514.0,514.0,514.0,514.0,514.0,514.0,514.0,514.0,514.0,514.0,514.0,514.0,509.0,509.0,509.0,509.0,509.0,509.0,514.0,514.0,514.0,514.0,514.0,514.0,514.0,514.0,514.0,514.0,514.0,514.0,514.0,514.0,510.0,510.0,510.0,510.0,510.0,510.0,508.0,525.0,514.0,500,500,500,3.0,23.0,8.0
0,505.0,513.5,510.0,505.0,509.0,510.0,505.0,505.0,505.0,505.0,505.0,505.0,505.0,505.0,505.0,505.0,505.0,505.0,505.0,505.0,505.0,505.0,505.0,505.0,505.0,505.0,509.0,509.0,509.0,509.0,518.0,518.0,518.0,518.0,518.0,518.0,518.0,518.0,518.0,518.0,518.0,518.0,518.0,518.0,518.0,518.0,510.0,510.0,510.0,510.0,510.0,510.0,510.0,510.0,510.0,510.0,510.0,510.0,510.0,510.0,510.0,510.0,510.0,510.0,510.0,510.0,505.0,518.0,510.0,500,500,500,0.0,9.0,0.0
0,508.1,527.3333333333334,506.8333333333333,508.0,523.0,503.0,508.0,508.0,508.0,508.0,508.0,508.0,508.0,508.0,508.0,508.0,508.0,508.0,508.0,508.0,508.0,508.0,511.0,511.0,511.0,511.0,528.0,528.0,528.0,528.0,528.0,528.0,528.0,528.0,528.0,528.0,528.0,528.0,528.0,528.0,528.0,528.0,523.0,523.0,523.0,523.0,507.0,507.0,507.0,507.0,507.0,507.0,507.0,507.0,507.0,507.0,507.0,507.0,507.0,507.0,507.0,507.0,503.0,503.0,503.0,503.0,511.0,528.0,507.0,500,500,500,6.0,10.0,7.0
0,511.0,515.0666666666667,503.0,511.0,506.0,503.0,511.0,511.0,511.0,511.0,511.0,511.0,511.0,511.0,511.0,511.0,511.0,511.0,511.0,511.0,511.0,511.0,511.0,511.0,511.0,511.0,523.0,523.0,523.0,523.0,523.0,523.0,506.0,506.0,506.0,506.0,506.0,506.0,506.0,506.0,506.0,506.0,506.0,506.0,506.0,506.0,503.0,503.0,503.0,503.0,503.0,503.0,503.0,503.0,503.0,503.0,503.0,503.0,503.0,503.0,503.0,503.0,503.0,503.0,503.0,503.0,511.0,523.0,503.0,500,500,500,0.0,17.0,0.0
0,511.26666666666665,509.73333333333335,503.8,511.0,505.0,501.0,511.0,511.0,511.0,511.0,511.0,511.0,511.0,511.0,511.0,511.0,511.0,511.0,512.0,512.0,512.0,512.0,512.0,512.0,512.0,512.0,505.0,505.0,505.0,505.0,505.0,505.0,505.0,505.0,505.0,505.0,505.0,505.0,522.0,522.0,522.0,522.0,522.0,522.0,522.0,522.0,501.0,501.0,501.0,501.0,501.0,501.0,501.0,501.0,501.0,501.0,501.0,501.0,510.0,510.0,510.0,510.0,510.0,510.0,510.0,510.0,512.0,522.0,510.0,500,500,500,1.0,17.0,9.0
0,511.93333333333334,514.8666666666667,510.8,512.0,504.0,510.0,512.0,512.0,512.0,512.0,512.0,512.0,512.0,512.0,512.0,512.0,512.0,512.0,512.0,512.0,512.0,512.0,512.0,512.0,512.0,512.0,522.0,522.0,522.0,522.0,522.0,522.0,522.0,504.0,504.0,504.0,504.0,504.0,504.0,504.0,504.0,504.0,504.0,504.0,504.0,504.0,510.0,510.0,510.0,510.0,510.0,510.0,510.0,513.0,513.0,513.0,513.0,513.0,513.0,513.0,513.0,513.0,513.0,513.0,513.0,513.0,512.0,522.0,513.0,500,500,500,1.0,18.0,12.0
0,511.5,503.3,510.5,511.0,501.0,508.0,512.0,512.0,512.0,512.0,512.0,511.0,511.0,511.0,511.0,511.0,511.0,511.0,511.0,511.0,511.0,511.0,511.0,511.0,511.0,511.0,504.0,504.0,504.0,504.0,504.0,501.0,501.0,501.0,501.0,501.0,501.0,501.0,501.0,501.0,501.0,501.0,507.0,507.0,507.0,507.0,513.0,513.0,513.0,513.0,513.0,508.0,508.0,508.0,508.0,508.0,508.0,508.0,508.0,508.0,508.0,508.0,508.0,508.0,508.0,508.0,512.0,507.0,513.0,500,500,500,1.0,6.0,5.0
0,511.0,505.4,508.0,511.0,507.0,508.0,511.0,511.0,511.0,511.0,511.0,511.0,511.0,511.0,511.0,511.0,511.0,511.0,511.0,511.0,511.0,511.0,511.0,511.0,511.0,511.0,507.0,507.0,507.0,507.0,507.0,507.0,507.0,507.0,507.0,507.0,507.0,507.0,507.0,507.0,507.0,507.0,507.0,507.0,507.0,507.0,508.0,508.0,508.0,508.0,508.0,508.0,508.0,508.0,508.0,508.0,508.0,508.0,508.0,508.0,508.0,508.0,508.0,508.0,508.0,508.0,511.0,507.0,508.0,500,500,500,0.0,6.0,0.0
0,509.3666666666667,505.6333333333333,509.3333333333333,508.0,500.0,510.0,509.0,509.0,509.0,509.0,509.0,509.0,509.0,509.0,509.0,509.0,508.0,508.0,508.0,508.0,508.0,508.0,508.0,508.0,508.0,508.0,509.0,509.0,509.0,509.0,509.0,509.0,509.0,509.0,509.0,509.0,500.0,500.0,500.0,500.0,500.0,500.0,500.0,500.0,500.0,500.0,510.0,510.0,510.0,510.0,510.0,510.0,510.0,510.0,510.0,510.0,510.0,510.0,510.0,510.0,510.0,510.0,510.0,510.0,510.0,510.0,509.0,509.0,510.0,500,500,500,3.0,9.0,2.0
0,508.1,496.96666666666664,510.2,507.0,493.0,508.0,507.0,507.0,507.0,507.0,507.0,507.0,509.0,509.0,509.0,509.0,509.0,509.0,509.0,509.0,509.0,509.0,509.0,509.0,509.0,509.0,493.0,493.0,493.0,493.0,493.0,493.0,499.0,499.0,499.0,499.0,499.0,499.0,499.0,499.0,499.0,499.0,499.0,499.0,499.0,499.0,508.0,508.0,508.0,508.0,508.0,508.0,512.0,512.0,512.0,512.0,512.0,512.0,512.0,512.0,512.0,512.0,512.0,512.0,512.0,512.0,509.0,499.0,512.0,500,500,500,2.0,7.0,4.0
0,506.06666666666666,516.7,517.3,505.0,508.0,517.0,507.0,507.0,507.0,507.0,507.0,505.0,505.0,505.0,505.0,505.0,505.0,505.0,505.0,505.0,505.0,505.0,505.0,505.0,505.0,505.0,508.0,508.0,508.0,508.0,508.0,526.0,526.0,526.0,526.0,526.0,526.0,526.0,526.0,526.0,526.0,526.0,526.0,526.0,526.0,526.0,518.0,518.0,518.0,518.0,518.0,517.0,517.0,517.0,517.0,517.0,517.0,517.0,517.0,517.0,517.0,517.0,517.0,517.0,517.0,517.0,507.0,526.0,518.0,500,500,500,4.0,27.0,6.0
0,504.1333333333333,527.5333333333333,516.9,501.0,526.0,516.0,505.0,505.0,505.0,505.0,505.0,505.0,505.0,503.0,503.0,503.0,503.0,503.0,503.0,503.0,503.0,501.0,501.0,501.0,501.0,501.0,526.0,526.0,526.0,526.0,526.0,526.0,526.0,526.0,526.0,526.0,526.0,526.0,526.0,526.0,526.0,549.0,549.0,549.0,549.0,549.0,517.0,517.0,517.0,517.0,517.0,517.0,517.0,516.0,516.0,516.0,516.0,516.0,516.0,516.0,516.0,520.0,520.0,520.0,520.0,520.0,505.0,549.0,520.0,500,500,500,4.0,23.0,4.0
0,499.96666666666664,535.7,528.9666666666667,496.0,529.0,524.0,505.0,505.0,505.0,505.0,505.0,496.0,496.0,496.0,496.0,496.0,496.0,496.0,496.0,496.0,496.0,496.0,496.0,496.0,496.0,496.0,540.0,540.0,540.0,540.0,540.0,529.0,529.0,529.0,529.0,529.0,529.0,529.0,529.0,529.0,529.0,529.0,529.0,529.0,529.0,529.0,524.0,524.0,524.0,524.0,524.0,535.0,535.0,535.0,535.0,535.0,535.0,535.0,535.0,535.0,535.0,535.0,535.0,535.0,535.0,535.0,505.0,540.0,535.0,500,500,500,9.0,20.0,15.0
0,495.3333333333333,524.8,528.5,492.0,516.0,523.0,496.0,492.0,492.0,492.0,492.0,492.0,492.0,492.0,492.0,492.0,492.0,492.0,499.0,499.0,499.0,499.0,499.0,499.0,499.0,499.0,529.0,527.0,527.0,527.0,527.0,527.0,527.0,527.0,527.0,527.0,527.0,527.0,516.0,516.0,516.0,516.0,516.0,516.0,516.0,516.0,535.0,526.0,526.0,526.0,526.0,526.0,526.0,526.0,526.0,526.0,526.0,526.0,523.0,523.0,523.0,523.0,523.0,523.0,523.0,523.0,499.0,529.0,535.0,500,500,500,7.0,13.0,12.0
0,502.3333333333333,494.26666666666665,533.0,499.0,470.0,523.0,499.0,499.0,504.0,504.0,504.0,504.0,504.0,504.0,504.0,504.0,505.0,505.0,505.0,505.0,505.0,505.0,505.0,505.0,505.0,505.0,516.0,516.0,492.0,492.0,492.0,492.0,492.0,492.0,492.0,492.0,470.0,470.0,470.0,470.0,470.0,470.0,470.0,470.0,470.0,470.0,523.0,523.0,538.0,538.0,538.0,538.0,538.0,538.0,538.0,538.0,541.0,541.0,541.0,541.0,541.0,541.0,541.0,541.0,541.0,541.0,505.0,516.0,541.0,500,500,500,6.0,46.0,18.0
0,502.73333333333335,469.4,537.4,501.0,469.0,535.0,505.0,505.0,501.0,501.0,501.0,501.0,501.0,501.0,501.0,501.0,501.0,501.0,501.0,501.0,501.0,501.0,501.0,501.0,501.0,501.0,470.0,470.0,469.0,469.0,469.0,469.0,469.0,469.0,469.0,469.0,469.0,469.0,469.0,469.0,469.0,469.0,469.0,469.0,469.0,469.0,541.0,541.0,535.0,535.0,535.0,535.0,535.0,535.0,535.0,535.0,535.0,535.0,535.0,535.0,535.0,535.0,535.0,535.0,535.0,535.0,505.0,470.0,541.0,500,500,500,4.0,1.0,6.0
0,498.46666666666664,472.03333333333336,535.6,497.0,469.0,530.0,498.0,498.0,498.0,498.0,498.0,498.0,498.0,498.0,498.0,498.0,498.0,497.0,497.0,497.0,497.0,497.0,497.0,497.0,497.0,497.0,469.0,469.0,469.0,469.0,469.0,469.0,469.0,469.0,469.0,469.0,469.0,482.0,482.0,482.0,482.0,482.0,482.0,482.0,482.0,482.0,530.0,530.0,530.0,530.0,530.0,530.0,530.0,530.0,530.0,530.0,530.0,549.0,549.0,549.0,549.0,549.0,549.0,549.0,549.0,549.0,498.0,482.0,549.0,500,500,500,4.0,13.0,19.0
0,499.1,495.03333333333336,545.7666666666667,497.0,482.0,545.0,497.0,497.0,497.0,497.0,497.0,497.0,497.0,497.0,497.0,497.0,503.0,503.0,503.0,503.0,503.0,503.0,503.0,503.0,503.0,503.0,482.0,482.0,482.0,482.0,482.0,482.0,482.0,482.0,482.0,482.0,525.0,525.0,525.0,525.0,525.0,525.0,525.0,525.0,525.0,525.0,549.0,549.0,549.0,549.0,549.0,549.0,549.0,549.0,549.0,549.0,545.0,545.0,545.0,545.0,545.0,545.0,545.0,545.0,545.0,545.0,503.0,525.0,549.0,500,500,500,6.0,56.0,19.0
0,511.56666666666666,531.8666666666667,531.3,503.0,525.0,504.0,503.0,503.0,503.0,503.0,503.0,503.0,503.0,503.0,503.0,516.0,516.0,516.0,516.0,516.0,516.0,540.0,540.0,540.0,540.0,540.0,525.0,525.0,525.0,525.0,525.0,525.0,525.0,525.0,525.0,554.0,554.0,554.0,554.0,554.0,554.0,540.0,540.0,540.0,540.0,540.0,545.0,545.0,545.0,545.0,545.0,545.0,545.0,545.0,545.0,510.0,510.0,510.0,510.0,510.0,510.0,504.0,504.0,504.0,504.0,504.0,540.0,554.0,545.0,500,500,500,43.0,72.0,45.0
0,540.3666666666667,535.9666666666667,500.7,540.0,529.0,495.0,540.0,540.0,540.0,540.0,540.0,540.0,540.0,540.0,540.0,541.0,541.0,541.0,541.0,541.0,541.0,541.0,541.0,541.0,541.0,541.0,540.0,540.0,540.0,540.0,540.0,540.0,540.0,540.0,540.0,529.0,529.0,529.0,529.0,529.0,529.0,529.0,529.0,529.0,529.0,529.0,504.0,504.0,504.0,504.0,504.0,504.0,504.0,504.0,504.0,495.0,495.0,495.0,495.0,495.0,495.0,495.0,495.0,495.0,495.0,495.0,541.0,540.0,504.0,500,500,500,1.0,11.0,9.0
0,535.8333333333334,524.6,492.0,527.0,516.0,486.0,541.0,541.0,541.0,541.0,541.0,541.0,527.0,527.0,527.0,527.0,527.0,527.0,527.0,527.0,527.0,527.0,527.0,527.0,527.0,527.0,529.0,529.0,529.0,529.0,529.0,529.0,516.0,516.0,516.0,516.0,516.0,516.0,516.0,516.0,516.0,516.0,516.0,516.0,516.0,516.0,495.0,495.0,495.0,495.0,495.0,495.0,486.0,486.0,486.0,486.0,486.0,486.0,486.0,486.0,486.0,486.0,486.0,486.0,486.0,486.0,541.0,529.0,495.0,500,500,500,14.0,24.0,18.0
0,521.6333333333333,510.9,492.5,520.0,499.0,489.0,520.0,520.0,520.0,520.0,520.0,520.0,520.0,520.0,520.0,520.0,520.0,520.0,520.0,520.0,520.0,520.0,520.0,520.0,520.0,520.0,499.0,499.0,499.0,499.0,499.0,499.0,516.0,516.0,516.0,516.0,516.0,516.0,516.0,516.0,516.0,516.0,516.0,516.0,516.0,516.0,489.0,489.0,489.0,489.0,489.0,489.0,498.0,498.0,498.0,498.0,498.0,498.0,498.0,498.0,498.0,498.0,498.0,498.0,498.0,498.0,520.0,516.0,498.0,500,500,500,7.0,17.0,12.0
0,518.9,513.3,491.8666666666667,516.0,508.0,478.0,520.0,520.0,520.0,516.0,516.0,516.0,516.0,516.0,516.0,516.0,516.0,516.0,516.0,516.0,516.0,523.0,523.0,523.0,523.0,523.0,516.0,516.0,516.0,508.0,508.0,508.0,508.0,508.0,508.0,508.0,508.0,508.0,508.0,508.0,508.0,519.0,519.0,519.0,519.0,519.0,498.0,498.0,498.0,491.0,491.0,491.0,491.0,491.0,491.0,491.0,491.0,491.0,491.0,491.0,491.0,478.0,478.0,478.0,478.0,478.0,523.0,519.0,498.0,500,500,500,7.0,11.0,20.0
0,519.8,528.6,486.53333333333336,517.0,519.0,478.0,523.0,523.0,523.0,523.0,517.0,517.0,517.0,517.0,517.0,517.0,517.0,517.0,517.0,517.0,517.0,517.0,517.0,517.0,503.0,503.0,519.0,519.0,519.0,519.0,537.0,537.0,537.0,537.0,537.0,537.0,537.0,537.0,537.0,537.0,537.0,537.0,537.0,537.0,541.0,541.0,478.0,478.0,478.0,478.0,494.0,494.0,494.0,494.0,494.0,494.0,494.0,494.0,494.0,494.0,494.0,494.0,494.0,494.0,517.0,517.0,523.0,537.0,494.0,500,500,500,6.0,18.0,16.0
0,504.43333333333334,545.4,513.6333333333333,492.0,541.0,517.0,503.0,503.0,503.0,503.0,503.0,503.0,503.0,503.0,503.0,503.0,503.0,503.0,503.0,503.0,503.0,492.0,492.0,492.0,492.0,492.0,541.0,541.0,541.0,541.0,541.0,541.0,541.0,541.0,541.0,541.0,541.0,541.0,541.0,541.0,541.0,573.0,573.0,573.0,573.0,573.0,517.0,517.0,517.0,517.0,517.0,517.0,517.0,517.0,517.0,517.0,517.0,517.0,517.0,517.0,517.0,529.0,529.0,529.0,529.0,529.0,503.0,573.0,529.0,500,500,500,25.0,36.0,35.0
0,496.1,557.9333333333333,539.3333333333334,492.0,543.0,529.0,492.0,492.0,492.0,492.0,492.0,492.0,500.0,500.0,500.0,500.0,500.0,500.0,500.0,500.0,500.0,500.0,500.0,500.0,500.0,500.0,573.0,573.0,573.0,573.0,573.0,573.0,543.0,543.0,543.0,543.0,543.0,543.0,543.0,543.0,543.0,543.0,543.0,543.0,543.0,543.0,529.0,529.0,529.0,529.0,529.0,529.0,552.0,552.0,552.0,552.0,552.0,552.0,552.0,552.0,552.0,552.0,552.0,552.0,552.0,552.0,500.0,573.0,552.0,500,500,500,11.0,32.0,35.0
0,500.5,529.5,527.7333333333333,499.0,516.0,496.0,500.0,500.0,500.0,503.0,503.0,503.0,503.0,503.0,503.0,503.0,503.0,499.0,499.0,499.0,499.0,499.0,499.0,499.0,499.0,499.0,543.0,543.0,543.0,516.0,516.0,516.0,516.0,516.0,516.0,516.0,516.0,522.0,522.0,522.0,522.0,522.0,522.0,522.0,522.0,522.0,552.0,552.0,552.0,524.0,524.0,524.0,524.0,524.0,524.0,524.0,524.0,496.0,496.0,496.0,496.0,496.0,496.0,496.0,496.0,496.0,503.0,543.0,552.0,500,500,500,4.0,27.0,56.0
0,497.3,529.0666666666667,496.6333333333333,492.0,522.0,487.0,499.0,499.0,499.0,499.0,499.0,499.0,499.0,499.0,499.0,499.0,499.0,492.0,492.0,492.0,492.0,492.0,492.0,492.0,492.0,492.0,522.0,522.0,522.0,522.0,522.0,522.0,522.0,522.0,522.0,522.0,522.0,549.0,549.0,549.0,549.0,549.0,549.0,549.0,536.0,536.0,496.0,496.0,496.0,496.0,496.0,496.0,496.0,496.0,496.0,496.0,496.0,487.0,487.0,487.0,487.0,487.0,487.0,487.0,503.0,503.0,499.0,549.0,503.0,500,500,500,11.0,33.0,37.0
0,488.5,517.4333333333333,511.46666666666664,485.0,498.0,503.0,492.0,492.0,492.0,492.0,485.0,485.0,485.0,485.0,485.0,485.0,485.0,485.0,485.0,485.0,485.0,485.0,485.0,485.0,485.0,485.0,536.0,536.0,536.0,536.0,498.0,498.0,498.0,498.0,498.0,498.0,498.0,498.0,498.0,498.0,498.0,498.0,498.0,498.0,498.0,498.0,503.0,503.0,503.0,503.0,521.0,521.0,521.0,521.0,521.0,521.0,521.0,521.0,521.0,521.0,521.0,521.0,521.0,521.0,521.0,521.0,492.0,536.0,521.0,500,500,500,7.0,51.0,34.0
0,480.96666666666664,489.3,522.5,474.0,481.0,508.0,485.0,485.0,485.0,474.0,474.0,474.0,474.0,474.0,474.0,474.0,474.0,474.0,474.0,474.0,474.0,496.0,496.0,496.0,496.0,496.0,498.0,498.0,498.0,483.0,483.0,483.0,483.0,483.0,483.0,483.0,483.0,483.0,483.0,483.0,483.0,481.0,481.0,481.0,481.0,481.0,521.0,521.0,521.0,527.0,527.0,527.0,527.0,527.0,527.0,527.0,527.0,527.0,527.0,527.0,527.0,508.0,508.0,508.0,508.0,508.0,496.0,498.0,527.0,500,500,500,22.0,17.0,19.0
0,487.93333333333334,481.73333333333335,514.9666666666667,474.0,481.0,508.0,496.0,496.0,496.0,496.0,496.0,496.0,496.0,496.0,496.0,496.0,496.0,496.0,496.0,496.0,496.0,496.0,496.0,496.0,496.0,496.0,481.0,481.0,481.0,481.0,481.0,481.0,481.0,481.0,481.0,481.0,481.0,481.0,481.0,481.0,481.0,481.0,481.0,481.0,481.0,481.0,508.0,508.0,508.0,508.0,508.0,508.0,508.0,508.0,508.0,508.0,508.0,508.0,508.0,508.0,508.0,508.0,508.0,508.0,508.0,508.0,496.0,483.0,508.0,500,500,500,22.0,2.0,19.0
0,498.1333333333333,486.03333333333336,501.1333333333333,487.0,485.0,495.0,487.0,487.0,504.0,504.0,504.0,504.0,504.0,504.0,504.0,504.0,504.0,504.0,504.0,504.0,504.0,504.0,504.0,504.0,504.0,504.0,485.0,485.0,488.0,488.0,488.0,488.0,488.0,488.0,488.0,488.0,488.0,488.0,488.0,488.0,488.0,488.0,488.0,488.0,488.0,488.0,495.0,495.0,502.0,502.0,502.0,502.0,502.0,502.0,502.0,502.0,502.0,502.0,502.0,502.0,502.0,502.0,502.0,502.0,502.0,502.0,504.0,488.0,502.0,500,500,500,17.0,7.0,13.0
0,550.8,488.06666666666666,507.0,544.0,479.0,507.0,556.0,556.0,556.0,556.0,556.0,556.0,556.0,544.0,544.0,544.0,544.0,544.0,544.0,544.0,544.0,544.0,544.0,544.0,544.0,544.0,495.0,495.0,495.0,495.0,495.0,495.0,495.0,479.0,479.0,479.0,479.0,479.0,479.0,479.0,479.0,479.0,479.0,479.0,479.0,479.0,507.0,507.0,507.0,507.0,507.0,507.0,507.0,507.0,507.0,507.0,507.0,507.0,507.0,507.0,507.0,507.0,507.0,507.0,507.0,507.0,556.0,495.0,507.0,500,500,500,12.0,16.0,0.0
0,543.6666666666666,477.8333333333333,506.1666666666667,542.0,472.0,502.0,544.0,544.0,544.0,544.0,544.0,544.0,544.0,544.0,544.0,544.0,544.0,544.0,544.0,544.0,544.0,542.0,542.0,542.0,542.0,542.0,479.0,479.0,479.0,479.0,479.0,479.0,479.0,479.0,479.0,479.0,479.0,479.0,479.0,479.0,479.0,472.0,472.0,472.0,472.0,472.0,507.0,507.0,507.0,507.0,507.0,507.0,507.0,507.0,507.0,507.0,507.0,507.0,507.0,507.0,507.0,502.0,502.0,502.0,502.0,502.0,544.0,479.0,507.0,500,500,500,2.0,7.0,5.0
0,542.3,474.4,504.1,537.0,468.0,502.0,544.0,544.0,542.0,542.0,542.0,542.0,542.0,542.0,542.0,542.0,542.0,542.0,542.0,542.0,542.0,542.0,542.0,537.0,537.0,537.0,479.0,479.0,472.0,472.0,472.0,472.0,472.0,472.0,472.0,472.0,472.0,472.0,472.0,472.0,472.0,472.0,472.0,468.0,468.0,468.0,507.0,507.0,502.0,502.0,502.0,502.0,502.0,502.0,502.0,502.0,502.0,502.0,502.0,502.0,502.0,502.0,502.0,503.0,503.0,503.0,544.0,479.0,507.0,500,500,500,7.0,11.0,5.0
0,537.7333333333333,468.73333333333335,506.3,537.0,468.0,503.0,537.0,537.0,537.0,537.0,537.0,537.0,537.0,539.0,539.0,539.0,539.0,539.0,539.0,539.0,539.0,539.0,539.0,539.0,510.0,510.0,468.0,468.0,468.0,468.0,468.0,468.0,468.0,470.0,470.0,470.0,470.0,470.0,470.0,470.0,470.0,470.0,470.0,470.0,465.0,465.0,503.0,503.0,503.0,503.0,503.0,503.0,512.0,512.0,512.0,512.0,512.0,512.0,512.0,512.0,512.0,512.0,512.0,512.0,506.0,506.0,539.0,470.0,512.0,500,500,500,2.0,2.0,9.0
0,508.8666666666667,470.6666666666667,507.7,508.0,465.0,506.0,510.0,510.0,510.0,508.0,508.0,508.0,508.0,508.0,508.0,508.0,508.0,508.0,508.0,508.0,508.0,508.0,508.0,508.0,508.0,508.0,465.0,465.0,465.0,475.0,475.0,475.0,475.0,475.0,475.0,475.0,475.0,475.0,475.0,475.0,475.0,475.0,475.0,475.0,475.0,475.0,506.0,506.0,506.0,509.0,509.0,509.0,509.0,509.0,509.0,509.0,509.0,509.0,509.0,509.0,509.0,509.0,509.0,509.0,509.0,509.0,510.0,475.0,509.0,500,500,500,2.0,10.0,3.0
0,497.93333333333334,483.7,506.6666666666667,489.0,475.0,504.0,508.0,508.0,489.0,489.0,489.0,489.0,489.0,489.0,489.0,489.0,489.0,489.0,489.0,489.0,497.0,497.0,497.0,497.0,497.0,497.0,475.0,475.0,487.0,487.0,487.0,487.0,487.0,487.0,487.0,487.0,487.0,487.0,487.0,487.0,496.0,496.0,496.0,496.0,496.0,496.0,509.0,509.0,504.0,504.0,504.0,504.0,504.0,504.0,504.0,504.0,504.0,504.0,504.0,504.0,508.0,508.0,508.0,508.0,508.0,508.0,508.0,496.0,509.0,500,500,500,19.0,21.0,5.0
0,494.06666666666666,493.0,506.93333333333334,495.0,496.0,508.0,497.0,497.0,497.0,497.0,497.0,497.0,497.0,497.0,497.0,497.0,497.0,497.0,497.0,497.0,497.0,497.0,495.0,495.0,495.0,495.0,496.0,496.0,496.0,496.0,496.0,496.0,496.0,496.0,496.0,496.0,496.0,496.0,496.0,496.0,496.0,496.0,496.0,496.0,496.0,496.0,508.0,508.0,508.0,508.0,508.0,508.0,508.0,508.0,508.0,508.0,508.0,508.0,508.0,508.0,508.0,508.0,510.0,510.0,510.0,510.0,497.0,496.0,510.0,500,500,500,8.0,9.0,6.0
0,492.73333333333335,497.8,511.8666666666667,482.0,496.0,510.0,495.0,495.0,495.0,495.0,495.0,495.0,495.0,495.0,495.0,495.0,495.0,495.0,495.0,482.0,482.0,482.0,482.0,482.0,482.0,482.0,496.0,496.0,496.0,496.0,496.0,496.0,496.0,496.0,496.0,496.0,496.0,496.0,496.0,505.0,505.0,505.0,505.0,505.0,505.0,505.0,510.0,510.0,510.0,510.0,510.0,510.0,510.0,510.0,510.0,510.0,510.0,510.0,510.0,521.0,521.0,521.0,521.0,521.0,521.0,521.0,495.0,505.0,521.0,500,500,500,15.0,9.0,13.0
0,485.1,505.7,516.6333333333333,482.0,505.0,509.0,482.0,482.0,482.0,482.0,482.0,482.0,482.0,482.0,482.0,482.0,490.0,490.0,490.0,490.0,490.0,490.0,490.0,490.0,490.0,490.0,505.0,505.0,505.0,505.0,505.0,505.0,505.0,505.0,505.0,505.0,508.0,508.0,508.0,508.0,508.0,508.0,508.0,508.0,508.0,508.0,521.0,521.0,521.0,521.0,521.0,521.0,521.0,521.0,521.0,521.0,509.0,509.0,509.0,509.0,509.0,509.0,509.0,509.0,509.0,509.0,490.0,508.0,521.0,500,500,500,13.0,12.0,12.0
0,498.1,513.1,502.7,490.0,508.0,496.0,490.0,490.0,492.0,492.0,492.0,492.0,492.0,492.0,492.0,492.0,492.0,515.0,515.0,515.0,515.0,515.0,515.0,515.0,515.0,515.0,508.0,508.0,515.0,515.0,515.0,515.0,515.0,515.0,515.0,515.0,515.0,518.0,518.0,518.0,518.0,518.0,518.0,518.0,518.0,518.0,509.0,509.0,496.0,496.0,496.0,496.0,496.0,496.0,496.0,496.0,496.0,501.0,501.0,501.0,501.0,501.0,501.0,501.0,501.0,501.0,515.0,518.0,509.0,500,500,500,25.0,10.0,13.0
0,515.0333333333333,514.7666666666667,499.26666666666665,510.0,509.0,498.0,515.0,515.0,515.0,515.0,515.0,515.0,515.0,515.0,515.0,515.0,515.0,533.0,533.0,533.0,533.0,533.0,533.0,533.0,533.0,510.0,518.0,518.0,518.0,518.0,518.0,518.0,518.0,518.0,518.0,518.0,518.0,509.0,509.0,509.0,509.0,509.0,509.0,509.0,509.0,511.0,501.0,501.0,501.0,501.0,501.0,501.0,501.0,501.0,501.0,501.0,501.0,498.0,498.0,498.0,498.0,498.0,498.0,498.0,498.0,503.0,533.0,518.0,503.0,500,500,500,41.0,9.0,7.0
0,516.6333333333333,511.46666666666664,501.4,505.0,509.0,498.0,533.0,510.0,510.0,510.0,510.0,510.0,510.0,510.0,510.0,510.0,510.0,510.0,510.0,510.0,510.0,510.0,510.0,510.0,505.0,505.0,509.0,511.0,511.0,511.0,511.0,511.0,511.0,511.0,511.0,511.0,511.0,511.0,511.0,511.0,511.0,511.0,511.0,511.0,513.0,513.0,498.0,503.0,503.0,503.0,503.0,503.0,503.0,503.0,503.0,503.0,503.0,503.0,503.0,503.0,503.0,503.0,503.0,503.0,503.0,503.0,533.0,513.0,503.0,500,500,500,28.0,9.0,5.0
0,506.7,512.1333333333333,501.93333333333334,504.0,511.0,495.0,510.0,505.0,505.0,505.0,505.0,505.0,505.0,505.0,505.0,505.0,505.0,505.0,505.0,505.0,505.0,505.0,504.0,504.0,504.0,504.0,511.0,513.0,513.0,513.0,513.0,513.0,513.0,513.0,513.0,513.0,513.0,513.0,513.0,513.0,513.0,513.0,512.0,512.0,512.0,512.0,503.0,503.0,503.0,503.0,503.0,503.0,503.0,503.0,503.0,503.0,503.0,503.0,503.0,503.0,503.0,503.0,495.0,495.0,495.0,495.0,510.0,513.0,503.0,500,500,500,6.0,2.0,8.0
0,499.76666666666665,510.76666666666665,494.93333333333334,482.0,505.0,488.0,504.0,504.0,504.0,504.0,504.0,504.0,504.0,504.0,504.0,504.0,482.0,482.0,482.0,482.0,482.0,482.0,482.0,482.0,482.0,482.0,512.0,512.0,512.0,512.0,512.0,512.0,512.0,512.0,512.0,512.0,505.0,505.0,505.0,505.0,505.0,505.0,505.0,505.0,505.0,505.0,495.0,495.0,495.0,495.0,495.0,495.0,495.0,495.0,495.0,495.0,488.0,488.0,488.0,488.0,488.0,488.0,488.0,488.0,488.0,488.0,504.0,512.0,495.0,500,500,500,23.0,8.0,15.0
0,492.5,505.0,490.1666666666667,482.0,500.0,488.0,482.0,482.0,482.0,482.0,482.0,482.0,482.0,482.0,482.0,483.0,483.0,483.0,483.0,483.0,530.0,530.0,530.0,530.0,530.0,530.0,505.0,505.0,505.0,505.0,505.0,505.0,505.0,505.0,505.0,500.0,500.0,500.0,500.0,500.0,508.0,508.0,508.0,508.0,508.0,508.0,488.0,488.0,488.0,488.0,488.0,488.0,488.0,488.0,488.0,490.0,490.0,490.0,490.0,490.0,496.0,496.0,496.0,496.0,496.0,496.0,530.0,508.0,496.0,500,500,500,48.0,12.0,8.0
0,508.8333333333333,507.3666666666667,494.3333333333333,490.0,508.0,496.0,530.0,530.0,530.0,530.0,530.0,530.0,530.0,530.0,530.0,530.0,530.0,530.0,530.0,530.0,530.0,530.0,490.0,490.0,490.0,490.0,508.0,508.0,508.0,508.0,508.0,508.0,508.0,508.0,508.0,508.0,508.0,508.0,508.0,508.0,508.0,508.0,517.0,517.0,517.0,517.0,496.0,496.0,496.0,496.0,496.0,496.0,496.0,496.0,496.0,496.0,496.0,496.0,496.0,496.0,496.0,496.0,501.0,501.0,501.0,501.0,530.0,517.0,501.0,500,500,500,48.0,17.0,13.0
0,495.76666666666665,516.1,499.8666666666667,487.0,517.0,500.0,490.0,490.0,490.0,490.0,490.0,490.0,490.0,490.0,490.0,490.0,490.0,487.0,487.0,487.0,487.0,487.0,487.0,487.0,487.0,487.0,517.0,517.0,517.0,517.0,517.0,517.0,517.0,517.0,517.0,517.0,517.0,519.0,519.0,519.0,519.0,519.0,519.0,519.0,519.0,519.0,501.0,501.0,501.0,501.0,501.0,501.0,501.0,501.0,501.0,501.0,501.0,500.0,500.0,500.0,500.0,500.0,500.0,500.0,500.0,500.0,490.0,519.0,501.0,500,500,500,43.0,11.0,5.0
0,486.8666666666667,517.7666666666667,498.1666666666667,486.0,514.0,492.0,487.0,487.0,487.0,487.0,487.0,487.0,487.0,487.0,487.0,487.0,486.0,486.0,486.0,486.0,486.0,486.0,486.0,486.0,486.0,486.0,519.0,519.0,519.0,519.0,519.0,519.0,519.0,519.0,519.0,519.0,514.0,514.0,514.0,514.0,514.0,514.0,514.0,514.0,514.0,514.0,500.0,500.0,500.0,500.0,500.0,500.0,500.0,500.0,500.0,492.0,492.0,492.0,492.0,492.0,492.0,492.0,492.0,492.0,492.0,492.0,487.0,519.0,500.0,500,500,500,4.0,5.0,9.0
0,486.53333333333336,505.23333333333335,497.7,479.0,497.0,496.0,479.0,479.0,479.0,479.0,479.0,479.0,479.0,491.0,491.0,491.0,491.0,491.0,491.0,491.0,491.0,491.0,491.0,491.0,491.0,491.0,508.0,508.0,508.0,508.0,508.0,508.0,508.0,497.0,497.0,497.0,497.0,497.0,497.0,497.0,497.0,497.0,497.0,497.0,497.0,497.0,496.0,496.0,496.0,496.0,496.0,496.0,496.0,503.0,503.0,503.0,503.0,503.0,503.0,503.0,503.0,503.0,503.0,503.0,503.0,503.0,491.0,508.0,503.0,500,500,500,12.0,17.0,11.0
0,501.0,495.73333333333335,502.26666666666665,497.0,495.0,501.0,503.0,503.0,503.0,503.0,503.0,503.0,503.0,503.0,503.0,503.0,503.0,503.0,503.0,503.0,503.0,503.0,497.0,497.0,497.0,497.0,495.0,495.0,495.0,495.0,495.0,495.0,495.0,495.0,495.0,495.0,495.0,495.0,495.0,495.0,495.0,495.0,499.0,499.0,499.0,499.0,501.0,501.0,501.0,501.0,501.0,501.0,501.0,501.0,501.0,501.0,501.0,501.0,501.0,501.0,501.0,501.0,509.0,509.0,509.0,509.0,503.0,499.0,509.0,500,500,500,12.0,4.0,8.0
0,498.8666666666667,498.6,507.4,497.0,499.0,509.0,497.0,497.0,497.0,497.0,497.0,497.0,497.0,497.0,497.0,497.0,497.0,497.0,497.0,497.0,497.0,497.0,499.0,499.0,499.0,499.0,499.0,499.0,499.0,499.0,499.0,499.0,499.0,499.0,499.0,499.0,499.0,499.0,499.0,499.0,499.0,499.0,504.0,504.0,504.0,504.0,509.0,509.0,509.0,509.0,509.0,509.0,509.0,509.0,509.0,509.0,509.0,509.0,509.0,509.0,509.0,509.0,513.0,513.0,513.0,513.0,499.0,504.0,513.0,500,500,500,6.0,9.0,12.0
0,497.8666666666667,502.0,511.9,497.0,499.0,509.0,497.0,497.0,499.0,499.0,499.0,499.0,499.0,499.0,499.0,499.0,499.0,499.0,499.0,497.0,497.0,497.0,497.0,497.0,497.0,497.0,499.0,499.0,504.0,504.0,504.0,504.0,504.0,504.0,504.0,504.0,504.0,504.0,504.0,504.0,504.0,504.0,504.0,504.0,504.0,504.0,509.0,509.0,513.0,513.0,513.0,513.0,513.0,513.0,513.0,513.0,513.0,513.0,513.0,516.0,516.0,516.0,516.0,516.0,516.0,516.0,499.0,504.0,516.0,500,500,500,2.0,5.0,7.0
0,497.26666666666665,508.2,517.5,497.0,504.0,516.0,497.0,497.0,497.0,497.0,497.0,497.0,497.0,497.0,497.0,498.0,498.0,498.0,498.0,498.0,498.0,498.0,498.0,498.0,498.0,498.0,504.0,504.0,504.0,504.0,504.0,504.0,504.0,504.0,504.0,518.0,518.0,518.0,518.0,518.0,518.0,518.0,518.0,518.0,518.0,518.0,516.0,516.0,516.0,516.0,516.0,516.0,516.0,516.0,516.0,521.0,521.0,521.0,521.0,521.0,521.0,521.0,521.0,521.0,521.0,521.0,498.0,518.0,521.0,500,500,500,1.0,14.0,5.0
0,498.5,513.4,520.0,498.0,500.0,521.0,498.0,498.0,498.0,498.0,498.0,498.0,498.0,498.0,498.0,498.0,498.0,498.0,498.0,498.0,498.0,498.0,498.0,505.0,505.0,505.0,518.0,518.0,518.0,518.0,518.0,518.0,518.0,518.0,518.0,518.0,518.0,518.0,518.0,518.0,518.0,518.0,518.0,500.0,500.0,500.0,521.0,521.0,521.0,521.0,521.0,521.0,521.0,521.0,521.0,521.0,521.0,521.0,521.0,521.0,521.0,521.0,521.0,521.0,521.0,521.0,505.0,518.0,521.0,500,500,500,8.0,18.0,5.0
0,505.8666666666667,512.8666666666667,521.0,505.0,500.0,521.0,505.0,505.0,505.0,505.0,505.0,505.0,505.0,505.0,505.0,509.0,509.0,509.0,509.0,509.0,509.0,509.0,509.0,509.0,509.0,509.0,500.0,500.0,500.0,500.0,500.0,500.0,500.0,500.0,500.0,535.0,535.0,535.0,535.0,535.0,535.0,535.0,535.0,535.0,535.0,535.0,521.0,521.0,521.0,521.0,521.0,521.0,521.0,521.0,521.0,521.0,521.0,521.0,521.0,521.0,521.0,521.0,521.0,521.0,521.0,521.0,509.0,535.0,521.0,500,500,500,11.0,35.0,0.0
0,508.2,532.8,521.4,509.0,535.0,521.0,509.0,509.0,509.0,509.0,509.0,509.0,509.0,509.0,509.0,509.0,509.0,509.0,509.0,509.0,509.0,509.0,509.0,509.0,509.0,509.0,535.0,535.0,535.0,535.0,535.0,535.0,535.0,535.0,535.0,535.0,535.0,535.0,535.0,535.0,535.0,571.0,571.0,571.0,571.0,571.0,521.0,521.0,521.0,521.0,521.0,521.0,521.0,521.0,521.0,521.0,521.0,521.0,521.0,521.0,521.0,524.0,524.0,524.0,524.0,524.0,509.0,571.0,524.0,500,500,500,4.0,71.0,3.0
0,509.53333333333336,575.5333333333333,524.2666666666667,509.0,571.0,524.0,509.0,509.0,509.0,509.0,509.0,509.0,509.0,509.0,509.0,509.0,509.0,509.0,511.0,511.0,511.0,511.0,511.0,511.0,511.0,511.0,571.0,571.0,571.0,571.0,571.0,571.0,571.0,571.0,571.0,571.0,571.0,571.0,588.0,588.0,588.0,588.0,588.0,588.0,588.0,588.0,524.0,524.0,524.0,524.0,524.0,524.0,524.0,524.0,524.0,524.0,524.0,524.0,525.0,525.0,525.0,525.0,525.0,525.0,525.0,525.0,511.0,588.0,525.0,500,500,500,2.0,17.0,1.0
0,508.56666666666666,586.8666666666667,519.7666666666667,504.0,588.0,508.0,511.0,511.0,511.0,511.0,511.0,511.0,511.0,511.0,511.0,511.0,511.0,504.0,504.0,504.0,504.0,504.0,504.0,504.0,505.0,505.0,588.0,588.0,588.0,588.0,588.0,588.0,588.0,588.0,588.0,588.0,588.0,596.0,596.0,596.0,596.0,596.0,596.0,596.0,594.0,594.0,525.0,525.0,525.0,525.0,525.0,525.0,525.0,525.0,525.0,525.0,525.0,508.0,508.0,508.0,508.0,508.0,508.0,508.0,509.0,509.0,511.0,596.0,525.0,500,500,500,7.0,25.0,17.0
0,506.96666666666664,594.9666666666667,512.8333333333334,504.0,594.0,508.0,504.0,504.0,505.0,505.0,505.0,505.0,505.0,505.0,505.0,505.0,505.0,505.0,505.0,505.0,505.0,505.0,517.0,517.0,517.0,517.0,596.0,596.0,594.0,594.0,594.0,594.0,594.0,594.0,594.0,594.0,594.0,594.0,594.0,594.0,594.0,594.0,609.0,609.0,609.0,609.0,508.0,508.0,509.0,509.0,509.0,509.0,509.0,509.0,509.0,509.0,509.0,509.0,509.0,509.0,509.0,523.0,523.0,523.0,523.0,523.0,517.0,609.0,523.0,500,500,500,13.0,21.0,17.0
0,520.3333333333334,608.7,518.1,517.0,600.0,512.0,517.0,517.0,522.0,522.0,522.0,522.0,522.0,522.0,522.0,522.0,522.0,522.0,522.0,522.0,522.0,522.0,522.0,522.0,522.0,532.0,609.0,609.0,609.0,609.0,609.0,609.0,609.0,609.0,609.0,609.0,609.0,609.0,609.0,609.0,609.0,609.0,609.0,609.0,609.0,600.0,523.0,523.0,515.0,515.0,515.0,515.0,515.0,515.0,515.0,515.0,515.0,515.0,515.0,515.0,515.0,515.0,515.0,515.0,515.0,512.0,532.0,609.0,523.0,500,500,500,15.0,9.0,11.0
0,529.4,600.6,512.8,522.0,585.0,510.0,522.0,522.0,532.0,532.0,532.0,532.0,532.0,532.0,532.0,532.0,532.0,532.0,532.0,532.0,539.0,539.0,539.0,539.0,539.0,539.0,609.0,609.0,600.0,600.0,600.0,600.0,600.0,600.0,600.0,600.0,600.0,600.0,600.0,600.0,585.0,585.0,585.0,585.0,585.0,585.0,515.0,515.0,512.0,512.0,512.0,512.0,512.0,512.0,512.0,512.0,512.0,512.0,512.0,512.0,510.0,510.0,510.0,510.0,510.0,510.0,539.0,609.0,515.0,500,500,500,17.0,24.0,5.0
0,537.1333333333333,585.6,510.73333333333335,539.0,568.0,510.0,539.0,539.0,539.0,539.0,539.0,539.0,539.0,539.0,539.0,539.0,539.0,539.0,539.0,539.0,539.0,539.0,539.0,539.0,539.0,539.0,585.0,585.0,585.0,585.0,585.0,585.0,585.0,585.0,585.0,585.0,585.0,585.0,585.0,585.0,568.0,568.0,568.0,568.0,568.0,568.0,510.0,510.0,510.0,510.0,510.0,510.0,510.0,510.0,510.0,510.0,510.0,510.0,510.0,510.0,511.0,511.0,511.0,511.0,511.0,511.0,539.0,585.0,511.0,500,500,500,7.0,32.0,2.0
0,536.2,572.6333333333333,511.23333333333335,511.0,568.0,511.0,539.0,539.0,539.0,539.0,539.0,539.0,539.0,539.0,539.0,539.0,539.0,539.0,539.0,511.0,511.0,511.0,511.0,511.0,511.0,511.0,568.0,568.0,568.0,568.0,568.0,568.0,568.0,568.0,568.0,568.0,568.0,568.0,568.0,569.0,569.0,569.0,569.0,569.0,569.0,569.0,511.0,511.0,511.0,511.0,511.0,511.0,511.0,511.0,511.0,511.0,511.0,511.0,511.0,516.0,516.0,516.0,516.0,516.0,516.0,516.0,539.0,569.0,516.0,500,500,500,28.0,17.0,6.0
0,518.1,568.9666666666667,514.5333333333333,500.0,569.0,512.0,511.0,511.0,511.0,511.0,511.0,511.0,511.0,511.0,511.0,511.0,511.0,511.0,511.0,511.0,511.0,511.0,511.0,511.0,511.0,500.0,569.0,569.0,569.0,569.0,569.0,569.0,569.0,569.0,569.0,569.0,569.0,569.0,569.0,569.0,569.0,569.0,569.0,569.0,569.0,576.0,516.0,516.0,516.0,516.0,516.0,516.0,516.0,516.0,516.0,516.0,516.0,516.0,516.0,516.0,516.0,516.0,516.0,516.0,516.0,512.0,511.0,576.0,516.0,500,500,500,28.0,8.0,5.0
0,504.9,573.9,513.8666666666667,500.0,574.0,512.0,500.0,500.0,500.0,500.0,500.0,500.0,500.0,500.0,500.0,500.0,500.0,500.0,500.0,510.0,510.0,510.0,510.0,510.0,510.0,510.0,576.0,576.0,576.0,576.0,576.0,576.0,576.0,576.0,576.0,576.0,576.0,576.0,576.0,574.0,574.0,574.0,574.0,574.0,574.0,574.0,512.0,512.0,512.0,512.0,512.0,512.0,512.0,512.0,512.0,512.0,512.0,512.0,512.0,516.0,516.0,516.0,516.0,516.0,516.0,516.0,510.0,576.0,516.0,500,500,500,11.0,7.0,4.0
0,528.0,571.7333333333333,513.2,510.0,567.0,508.0,510.0,510.0,510.0,510.0,510.0,510.0,510.0,510.0,565.0,565.0,565.0,565.0,565.0,565.0,565.0,565.0,565.0,565.0,565.0,565.0,574.0,574.0,574.0,574.0,574.0,574.0,574.0,567.0,567.0,567.0,567.0,567.0,567.0,567.0,567.0,567.0,567.0,567.0,567.0,567.0,516.0,516.0,516.0,516.0,516.0,516.0,516.0,508.0,508.0,508.0,508.0,508.0,508.0,508.0,508.0,508.0,508.0,508.0,508.0,508.0,565.0,574.0,516.0,500,500,500,65.0,9.0,8.0
0,565.8,565.4,505.3333333333333,565.0,561.0,498.0,565.0,565.0,565.0,565.0,565.0,565.0,565.0,565.0,565.0,565.0,565.0,568.0,568.0,568.0,568.0,568.0,568.0,568.0,568.0,568.0,567.0,567.0,567.0,567.0,567.0,567.0,567.0,567.0,567.0,567.0,567.0,561.0,561.0,561.0,561.0,561.0,561.0,561.0,561.0,561.0,508.0,508.0,508.0,508.0,508.0,508.0,508.0,508.0,508.0,508.0,508.0,498.0,498.0,498.0,498.0,498.0,498.0,498.0,498.0,498.0,568.0,567.0,508.0,500,500,500,3.0,6.0,10.0
0,545.6,560.4666666666667,500.8333333333333,526.0,560.0,498.0,568.0,568.0,568.0,526.0,526.0,526.0,526.0,526.0,526.0,526.0,526.0,526.0,526.0,526.0,526.0,526.0,526.0,526.0,526.0,526.0,561.0,561.0,561.0,560.0,560.0,560.0,560.0,560.0,560.0,560.0,560.0,560.0,560.0,560.0,560.0,560.0,560.0,560.0,560.0,560.0,498.0,498.0,498.0,503.0,503.0,503.0,503.0,503.0,503.0,503.0,503.0,503.0,503.0,503.0,503.0,503.0,503.0,503.0,503.0,503.0,568.0,561.0,503.0,500,500,500,42.0,1.0,5.0
0,504.3333333333333,552.7666666666667,507.5,487.0,539.0,508.0,500.0,500.0,500.0,500.0,500.0,500.0,500.0,500.0,500.0,500.0,500.0,500.0,500.0,500.0,500.0,487.0,487.0,487.0,487.0,487.0,553.0,553.0,553.0,553.0,553.0,553.0,553.0,553.0,553.0,553.0,553.0,553.0,553.0,553.0,553.0,539.0,539.0,539.0,539.0,539.0,508.0,508.0,508.0,508.0,508.0,508.0,508.0,508.0,508.0,508.0,508.0,508.0,508.0,508.0,508.0,513.0,513.0,513.0,513.0,513.0,500.0,553.0,513.0,500,500,500,39.0,21.0,10.0
0,481.3333333333333,534.0,513.6666666666666,470.0,524.0,513.0,487.0,487.0,487.0,487.0,487.0,487.0,487.0,487.0,487.0,487.0,470.0,470.0,470.0,470.0,470.0,470.0,470.0,470.0,470.0,470.0,539.0,539.0,539.0,539.0,539.0,539.0,539.0,539.0,539.0,539.0,524.0,524.0,524.0,524.0,524.0,524.0,524.0,524.0,524.0,524.0,513.0,513.0,513.0,513.0,513.0,513.0,513.0,513.0,513.0,513.0,515.0,515.0,515.0,515.0,515.0,515.0,515.0,515.0,515.0,515.0,487.0,539.0,515.0,500,500,500,17.0,15.0,2.0
0,478.26666666666665,521.2666666666667,514.2,470.0,519.0,511.0,470.0,470.0,471.0,471.0,471.0,471.0,471.0,471.0,471.0,471.0,494.0,494.0,494.0,494.0,494.0,494.0,494.0,494.0,494.0,494.0,524.0,524.0,520.0,520.0,520.0,520.0,520.0,520.0,520.0,519.0,519.0,519.0,519.0,519.0,519.0,519.0,519.0,519.0,519.0,519.0,515.0,515.0,517.0,517.0,517.0,517.0,517.0,517.0,517.0,511.0,511.0,511.0,511.0,511.0,511.0,511.0,511.0,511.0,511.0,511.0,494.0,524.0,517.0,500,500,500,24.0,5.0,6.0
0,504.43333333333334,519.7,514.7666666666667,494.0,502.0,511.0,494.0,494.0,494.0,494.0,494.0,494.0,494.0,519.0,519.0,519.0,519.0,519.0,519.0,519.0,519.0,519.0,519.0,513.0,513.0,513.0,519.0,519.0,519.0,519.0,519.0,519.0,519.0,524.0,524.0,524.0,524.0,524.0,524.0,524.0,524.0,524.0,524.0,502.0,502.0,502.0,511.0,511.0,511.0,511.0,511.0,511.0,511.0,520.0,520.0,520.0,520.0,520.0,520.0,520.0,520.0,520.0,520.0,518.0,518.0,518.0,519.0,524.0,520.0,500,500,500,25.0,22.0,9.0
0,511.0,522.3666666666667,521.1666666666666,493.0,502.0,518.0,513.0,513.0,513.0,513.0,513.0,513.0,513.0,513.0,513.0,513.0,493.0,493.0,493.0,493.0,493.0,493.0,493.0,493.0,493.0,493.0,502.0,502.0,502.0,502.0,502.0,502.0,502.0,502.0,502.0,502.0,561.0,561.0,561.0,561.0,561.0,561.0,561.0,561.0,561.0,561.0,518.0,518.0,518.0,518.0,518.0,518.0,518.0,518.0,518.0,518.0,529.0,529.0,529.0,529.0,529.0,529.0,529.0,529.0,529.0,529.0,513.0,561.0,529.0,500,500,500,26.0,59.0,11.0
0,488.23333333333335,567.9666666666667,532.6666666666666,480.0,561.0,529.0,493.0,493.0,493.0,493.0,493.0,493.0,493.0,493.0,480.0,480.0,480.0,480.0,480.0,480.0,480.0,480.0,480.0,480.0,480.0,480.0,561.0,561.0,561.0,561.0,561.0,561.0,561.0,561.0,580.0,580.0,580.0,580.0,580.0,580.0,580.0,580.0,580.0,580.0,580.0,580.0,529.0,529.0,529.0,529.0,529.0,529.0,529.0,529.0,539.0,539.0,539.0,539.0,539.0,539.0,539.0,539.0,539.0,539.0,539.0,539.0,493.0,580.0,539.0,500,500,500,13.0,19.0,10.0
0,486.43333333333334,567.9,521.8,480.0,547.0,479.0,480.0,489.0,489.0,489.0,489.0,489.0,489.0,489.0,489.0,491.0,491.0,491.0,491.0,491.0,491.0,491.0,491.0,491.0,491.0,491.0,580.0,547.0,547.0,547.0,547.0,547.0,547.0,547.0,547.0,571.0,571.0,571.0,571.0,571.0,571.0,571.0,571.0,571.0,571.0,571.0,539.0,557.0,557.0,557.0,557.0,557.0,557.0,557.0,557.0,479.0,479.0,479.0,479.0,479.0,479.0,479.0,479.0,479.0,479.0,479.0,491.0,580.0,557.0,500,500,500,11.0,33.0,78.0
0,497.5,560.4666666666667,490.7,491.0,527.0,479.0,491.0,491.0,491.0,491.0,491.0,491.0,491.0,491.0,491.0,491.0,491.0,491.0,491.0,503.0,503.0,503.0,503.0,542.0,542.0,542.0,571.0,571.0,571.0,571.0,571.0,571.0,571.0,571.0,571.0,571.0,571.0,571.0,571.0,543.0,543.0,543.0,543.0,527.0,527.0,527.0,479.0,479.0,479.0,479.0,479.0,479.0,479.0,479.0,479.0,479.0,479.0,479.0,479.0,488.0,488.0,488.0,488.0,506.0,506.0,506.0,542.0,571.0,506.0,500,500,500,53.0,44.0,78.0
0,517.8666666666667,536.7333333333333,494.0,502.0,496.0,488.0,503.0,503.0,542.0,542.0,542.0,542.0,542.0,542.0,542.0,542.0,542.0,542.0,542.0,542.0,542.0,542.0,502.0,502.0,502.0,502.0,543.0,543.0,527.0,527.0,527.0,527.0,527.0,527.0,527.0,527.0,527.0,527.0,527.0,527.0,527.0,527.0,496.0,496.0,496.0,496.0,488.0,488.0,506.0,506.0,506.0,506.0,506.0,506.0,506.0,506.0,506.0,506.0,506.0,506.0,506.0,506.0,488.0,488.0,488.0,488.0,542.0,543.0,506.0,500,500,500,51.0,75.0,27.0
0,511.6666666666667,493.3666666666667,488.9,502.0,470.0,481.0,502.0,502.0,502.0,502.0,502.0,502.0,502.0,502.0,502.0,502.0,502.0,512.0,512.0,512.0,512.0,512.0,512.0,512.0,512.0,512.0,496.0,496.0,496.0,496.0,496.0,496.0,496.0,496.0,496.0,496.0,496.0,470.0,470.0,470.0,470.0,470.0,470.0,470.0,470.0,470.0,488.0,488.0,488.0,488.0,488.0,488.0,488.0,488.0,488.0,488.0,488.0,481.0,481.0,481.0,481.0,481.0,481.0,481.0,481.0,481.0,512.0,496.0,488.0,500,500,500,40.0,57.0,25.0
0,495.3,461.0,476.4,483.0,455.0,474.0,495.0,495.0,495.0,495.0,495.0,495.0,495.0,495.0,483.0,483.0,483.0,483.0,483.0,483.0,483.0,483.0,483.0,483.0,483.0,483.0,460.0,460.0,460.0,460.0,460.0,460.0,460.0,460.0,455.0,455.0,455.0,455.0,455.0,455.0,455.0,455.0,455.0,455.0,455.0,455.0,475.0,475.0,475.0,475.0,475.0,475.0,475.0,475.0,474.0,474.0,474.0,474.0,474.0,474.0,474.0,474.0,474.0,474.0,474.0,474.0,495.0,460.0,475.0,500,500,500,29.0,15.0,7.0
0,486.5,455.6666666666667,479.6666666666667,483.0,455.0,474.0,483.0,483.0,483.0,483.0,483.0,487.0,487.0,487.0,487.0,487.0,487.0,487.0,487.0,487.0,487.0,496.0,496.0,496.0,496.0,496.0,455.0,455.0,455.0,455.0,455.0,455.0,455.0,455.0,455.0,455.0,455.0,455.0,455.0,455.0,455.0,459.0,459.0,459.0,459.0,459.0,474.0,474.0,474.0,474.0,474.0,480.0,480.0,480.0,480.0,480.0,480.0,480.0,480.0,480.0,480.0,496.0,496.0,496.0,496.0,496.0,496.0,459.0,496.0,500,500,500,13.0,4.0,22.0
0,505.6,463.26666666666665,495.46666666666664,496.0,459.0,495.0,496.0,496.0,496.0,514.0,514.0,514.0,514.0,514.0,514.0,514.0,514.0,514.0,514.0,514.0,514.0,514.0,514.0,514.0,514.0,514.0,459.0,459.0,459.0,467.0,467.0,467.0,467.0,467.0,467.0,467.0,467.0,467.0,467.0,467.0,467.0,467.0,467.0,467.0,467.0,467.0,496.0,496.0,496.0,495.0,495.0,495.0,495.0,495.0,495.0,495.0,495.0,495.0,495.0,495.0,495.0,495.0,495.0,495.0,495.0,495.0,514.0,467.0,496.0,500,500,500,18.0,8.0,1.0
0,514.4,461.6666666666667,496.5,510.0,451.0,491.0,514.0,514.0,514.0,514.0,514.0,519.0,519.0,519.0,519.0,519.0,519.0,519.0,519.0,510.0,510.0,510.0,510.0,510.0,510.0,510.0,467.0,467.0,467.0,467.0,467.0,461.0,461.0,461.0,461.0,461.0,461.0,461.0,461.0,451.0,451.0,451.0,451.0,451.0,451.0,451.0,495.0,495.0,495.0,495.0,495.0,491.0,491.0,491.0,491.0,491.0,491.0,491.0,491.0,506.0,506.0,506.0,506.0,506.0,506.0,506.0,519.0,467.0,506.0,500,500,500,9.0,16.0,15.0
0,503.53333333333336,448.6333333333333,504.56666666666666,492.0,446.0,501.0,510.0,510.0,510.0,500.0,500.0,500.0,500.0,500.0,500.0,500.0,500.0,500.0,500.0,500.0,500.0,500.0,492.0,492.0,492.0,492.0,451.0,451.0,451.0,447.0,447.0,447.0,447.0,447.0,447.0,447.0,447.0,447.0,447.0,447.0,447.0,447.0,446.0,446.0,446.0,446.0,506.0,506.0,506.0,504.0,504.0,504.0,504.0,504.0,504.0,504.0,504.0,504.0,504.0,504.0,504.0,504.0,501.0,501.0,501.0,501.0,510.0,451.0,506.0,500,500,500,18.0,5.0,5.0
0,493.06666666666666,446.4,502.46666666666664,492.0,446.0,501.0,492.0,492.0,492.0,492.0,492.0,492.0,492.0,492.0,492.0,492.0,492.0,492.0,492.0,492.0,492.0,492.0,492.0,492.0,492.0,492.0,446.0,446.0,446.0,446.0,446.0,446.0,446.0,446.0,446.0,446.0,446.0,446.0,447.0,447.0,447.0,447.0,447.0,447.0,447.0,447.0,501.0,501.0,501.0,501.0,501.0,501.0,501.0,501.0,501.0,501.0,501.0,501.0,505.0,505.0,505.0,505.0,505.0,505.0,505.0,505.0,492.0,447.0,505.0,500,500,500,8.0,1.0,4.0
0,492.4,446.56666666666666,503.3666666666667,492.0,445.0,498.0,492.0,492.0,492.0,492.0,492.0,492.0,492.0,492.0,492.0,492.0,492.0,492.0,492.0,492.0,492.0,492.0,492.0,496.0,496.0,496.0,447.0,447.0,447.0,447.0,447.0,447.0,447.0,447.0,447.0,447.0,447.0,447.0,447.0,447.0,447.0,447.0,447.0,445.0,445.0,445.0,505.0,505.0,505.0,505.0,505.0,505.0,505.0,505.0,505.0,505.0,505.0,505.0,505.0,505.0,505.0,505.0,505.0,498.0,498.0,498.0,496.0,447.0,505.0,500,500,500,4.0,2.0,7.0
0,498.1333333333333,444.46666666666664,500.53333333333336,496.0,442.0,498.0,496.0,496.0,496.0,496.0,496.0,496.0,496.0,496.0,496.0,496.0,506.0,506.0,506.0,506.0,506.0,506.0,506.0,506.0,506.0,506.0,445.0,445.0,445.0,445.0,445.0,445.0,445.0,445.0,445.0,445.0,442.0,442.0,442.0,442.0,442.0,442.0,442.0,442.0,442.0,442.0,498.0,498.0,498.0,498.0,498.0,498.0,498.0,498.0,498.0,498.0,504.0,504.0,504.0,504.0,504.0,504.0,504.0,504.0,504.0,504.0,506.0,445.0,504.0,500,500,500,14.0,5.0,7.0
0,504.23333333333335,443.3,503.7,505.0,442.0,504.0,506.0,506.0,506.0,506.0,506.0,506.0,506.0,506.0,506.0,506.0,506.0,506.0,506.0,506.0,506.0,506.0,505.0,505.0,505.0,505.0,442.0,442.0,442.0,442.0,442.0,442.0,442.0,442.0,442.0,442.0,442.0,442.0,442.0,442.0,442.0,442.0,450.0,450.0,450.0,450.0,504.0,504.0,504.0,504.0,504.0,504.0,504.0,504.0,504.0,504.0,504.0,504.0,504.0,504.0,504.0,504.0,511.0,511.0,511.0,511.0,506.0,450.0,511.0,500,500,500,10.0,8.0,13.0
0,497.53333333333336,451.4,507.73333333333335,489.0,450.0,504.0,505.0,505.0,505.0,505.0,505.0,505.0,489.0,489.0,489.0,489.0,489.0,489.0,489.0,489.0,489.0,489.0,489.0,489.0,489.0,489.0,450.0,450.0,450.0,450.0,450.0,450.0,453.0,453.0,453.0,453.0,453.0,453.0,453.0,453.0,453.0,453.0,453.0,453.0,453.0,453.0,511.0,511.0,511.0,511.0,511.0,511.0,504.0,504.0,504.0,504.0,504.0,504.0,504.0,504.0,504.0,504.0,504.0,504.0,504.0,504.0,505.0,453.0,511.0,500,500,500,16.0,3.0,7.0
0,480.4,453.2,496.7,475.0,451.0,487.0,489.0,476.0,476.0,476.0,476.0,476.0,476.0,476.0,476.0,475.0,475.0,475.0,475.0,475.0,475.0,475.0,475.0,475.0,475.0,475.0,453.0,451.0,451.0,451.0,451.0,451.0,451.0,451.0,451.0,455.0,455.0,455.0,455.0,455.0,455.0,455.0,455.0,455.0,455.0,455.0,504.0,500.0,500.0,500.0,500.0,500.0,500.0,500.0,500.0,487.0,487.0,487.0,487.0,487.0,487.0,487.0,487.0,487.0,487.0,487.0,489.0,455.0,504.0,500,500,500,14.0,4.0,17.0
0,498.8,460.0,471.2,488.0,460.0,468.0,488.0,506.0,506.0,506.0,506.0,506.0,506.0,506.0,506.0,506.0,506.0,506.0,506.0,506.0,506.0,506.0,506.0,506.0,506.0,506.0,460.0,460.0,460.0,460.0,460.0,460.0,460.0,460.0,460.0,460.0,460.0,460.0,460.0,460.0,460.0,460.0,460.0,460.0,460.0,460.0,476.0,468.0,468.0,468.0,468.0,468.0,468.0,468.0,468.0,468.0,468.0,468.0,468.0,468.0,468.0,468.0,468.0,468.0,468.0,468.0,506.0,460.0,476.0,500,500,500,18.0,0.0,8.0
0,508.26666666666665,465.7,470.8333333333333,504.0,460.0,468.0,506.0,506.0,512.0,512.0,512.0,512.0,512.0,512.0,512.0,512.0,512.0,512.0,512.0,504.0,504.0,504.0,504.0,504.0,504.0,504.0,460.0,460.0,467.0,467.0,467.0,467.0,467.0,467.0,467.0,467.0,467.0,467.0,467.0,476.0,476.0,476.0,476.0,476.0,476.0,476.0,468.0,468.0,473.0,473.0,473.0,473.0,473.0,473.0,473.0,473.0,473.0,473.0,473.0,472.0,472.0,472.0,472.0,472.0,472.0,472.0,512.0,476.0,473.0,500,500,500,8.0,16.0,5.0
0,504.6,474.53333333333336,476.2,498.0,476.0,472.0,504.0,504.0,504.0,504.0,504.0,504.0,504.0,504.0,504.0,504.0,504.0,504.0,504.0,504.0,498.0,498.0,498.0,498.0,498.0,498.0,476.0,476.0,476.0,476.0,476.0,476.0,476.0,476.0,476.0,476.0,476.0,476.0,476.0,476.0,478.0,478.0,478.0,478.0,478.0,478.0,472.0,472.0,472.0,472.0,472.0,472.0,472.0,472.0,472.0,472.0,472.0,472.0,472.0,472.0,496.0,496.0,496.0,496.0,496.0,496.0,504.0,478.0,496.0,500,500,500,14.0,11.0,24.0
0,498.0,477.5,502.5,498.0,477.0,496.0,498.0,498.0,498.0,498.0,498.0,498.0,498.0,498.0,498.0,498.0,498.0,498.0,498.0,498.0,498.0,498.0,498.0,498.0,498.0,507.0,478.0,478.0,478.0,478.0,478.0,477.0,477.0,477.0,477.0,477.0,477.0,477.0,477.0,477.0,477.0,477.0,477.0,477.0,477.0,481.0,496.0,496.0,496.0,496.0,496.0,509.0,509.0,509.0,509.0,509.0,509.0,509.0,509.0,509.0,509.0,509.0,509.0,509.0,509.0,507.0,498.0,478.0,509.0,500,500,500,0.0,1.0,13.0
0,507.1,480.06666666666666,507.8666666666667,507.0,480.0,507.0,507.0,507.0,507.0,507.0,507.0,507.0,507.0,507.0,507.0,507.0,513.0,513.0,513.0,513.0,513.0,513.0,513.0,513.0,513.0,513.0,481.0,481.0,481.0,481.0,481.0,481.0,481.0,481.0,481.0,480.0,480.0,480.0,480.0,480.0,480.0,480.0,480.0,480.0,480.0,480.0,507.0,507.0,507.0,507.0,507.0,507.0,507.0,507.0,507.0,509.0,509.0,509.0,509.0,509.0,509.0,509.0,509.0,509.0,509.0,509.0,513.0,481.0,509.0,500,500,500,15.0,4.0,2.0
0,516.0,488.3333333333333,510.23333333333335,514.0,484.0,510.0,514.0,514.0,514.0,514.0,514.0,514.0,514.0,520.0,520.0,520.0,520.0,520.0,520.0,520.0,520.0,520.0,520.0,520.0,520.0,520.0,484.0,484.0,484.0,484.0,484.0,484.0,484.0,498.0,498.0,498.0,498.0,498.0,498.0,498.0,498.0,498.0,498.0,498.0,498.0,498.0,511.0,511.0,511.0,511.0,511.0,511.0,511.0,510.0,510.0,510.0,510.0,510.0,510.0,510.0,510.0,510.0,510.0,510.0,510.0,510.0,520.0,498.0,511.0,500,500,500,7.0,18.0,2.0
0,517.5333333333333,499.73333333333335,509.3666666666667,512.0,498.0,505.0,520.0,520.0,520.0,520.0,520.0,520.0,520.0,520.0,520.0,514.0,514.0,514.0,514.0,514.0,512.0,512.0,512.0,512.0,512.0,512.0,498.0,498.0,498.0,498.0,498.0,498.0,498.0,498.0,498.0,503.0,503.0,503.0,503.0,503.0,507.0,507.0,507.0,507.0,507.0,507.0,510.0,510.0,510.0,510.0,510.0,510.0,510.0,510.0,510.0,510.0,510.0,510.0,510.0,510.0,505.0,505.0,505.0,505.0,505.0,505.0,520.0,507.0,510.0,500,500,500,8.0,23.0,6.0
0,514.1,503.7,506.5,512.0,496.0,505.0,512.0,512.0,512.0,512.0,512.0,512.0,512.0,512.0,512.0,512.0,512.0,519.0,519.0,519.0,519.0,519.0,519.0,519.0,519.0,519.0,507.0,507.0,507.0,507.0,507.0,507.0,507.0,507.0,507.0,507.0,507.0,496.0,496.0,496.0,496.0,496.0,496.0,496.0,496.0,496.0,505.0,505.0,505.0,505.0,505.0,505.0,505.0,505.0,505.0,505.0,505.0,510.0,510.0,510.0,510.0,510.0,510.0,510.0,510.0,510.0,519.0,507.0,510.0,500,500,500,7.0,11.0,5.0
0,517.7,488.2,513.0333333333333,516.0,478.0,510.0,519.0,519.0,519.0,519.0,519.0,519.0,519.0,516.0,516.0,516.0,516.0,516.0,516.0,516.0,516.0,516.0,516.0,516.0,516.0,516.0,496.0,496.0,496.0,496.0,496.0,496.0,496.0,478.0,478.0,478.0,478.0,478.0,478.0,478.0,478.0,478.0,478.0,478.0,478.0,478.0,510.0,510.0,510.0,510.0,510.0,510.0,510.0,517.0,517.0,517.0,517.0,517.0,517.0,517.0,517.0,517.0,517.0,517.0,517.0,517.0,519.0,496.0,517.0,500,500,500,3.0,18.0,7.0
0,516.1,475.8,523.8333333333334,512.0,471.0,517.0,516.0,516.0,516.0,516.0,516.0,516.0,516.0,516.0,518.0,518.0,518.0,518.0,518.0,518.0,518.0,518.0,512.0,512.0,512.0,512.0,478.0,478.0,478.0,478.0,478.0,478.0,478.0,478.0,471.0,471.0,471.0,471.0,471.0,471.0,471.0,471.0,471.0,471.0,471.0,471.0,517.0,517.0,517.0,517.0,517.0,517.0,517.0,517.0,533.0,533.0,533.0,533.0,533.0,533.0,533.0,533.0,538.0,538.0,538.0,538.0,518.0,478.0,538.0,500,500,500,7.0,25.0,28.0
0,513.7333333333333,474.03333333333336,534.5666666666667,512.0,471.0,529.0,512.0,512.0,512.0,512.0,512.0,512.0,512.0,512.0,512.0,512.0,512.0,512.0,512.0,512.0,512.0,512.0,512.0,512.0,512.0,512.0,471.0,471.0,471.0,471.0,471.0,471.0,471.0,471.0,471.0,471.0,471.0,471.0,471.0,485.0,485.0,485.0,485.0,485.0,485.0,485.0,538.0,538.0,538.0,538.0,538.0,538.0,538.0,538.0,538.0,538.0,538.0,538.0,538.0,529.0,529.0,529.0,529.0,529.0,529.0,529.0,512.0,485.0,538.0,500,500,500,6.0,14.0,21.0
0,511.3333333333333,484.06666666666666,529.4333333333333,508.0,485.0,519.0,512.0,512.0,512.0,512.0,512.0,512.0,512.0,512.0,512.0,512.0,512.0,512.0,512.0,512.0,512.0,508.0,508.0,508.0,508.0,508.0,485.0,485.0,485.0,485.0,485.0,485.0,485.0,485.0,485.0,485.0,485.0,485.0,485.0,485.0,485.0,499.0,499.0,499.0,499.0,499.0,529.0,529.0,529.0,529.0,529.0,529.0,529.0,529.0,529.0,529.0,529.0,529.0,529.0,529.0,529.0,519.0,519.0,519.0,519.0,519.0,512.0,499.0,529.0,500,500,500,4.0,28.0,19.0
0,509.6666666666667,494.73333333333335,522.2666666666667,508.0,499.0,518.0,508.0,508.0,508.0,508.0,508.0,508.0,508.0,508.0,508.0,508.0,508.0,508.0,508.0,508.0,508.0,508.0,508.0,513.0,513.0,513.0,499.0,499.0,499.0,499.0,499.0,499.0,499.0,499.0,499.0,499.0,499.0,499.0,499.0,499.0,499.0,499.0,499.0,505.0,505.0,505.0,519.0,519.0,519.0,519.0,519.0,519.0,519.0,519.0,519.0,519.0,519.0,519.0,519.0,519.0,519.0,519.0,519.0,518.0,518.0,518.0,513.0,505.0,519.0,500,500,500,5.0,20.0,11.0
0,511.6,503.1333333333333,518.6,512.0,501.0,518.0,513.0,513.0,513.0,513.0,513.0,513.0,513.0,513.0,513.0,513.0,513.0,513.0,513.0,513.0,513.0,513.0,513.0,513.0,512.0,512.0,505.0,505.0,505.0,505.0,505.0,505.0,505.0,505.0,505.0,505.0,505.0,505.0,505.0,505.0,505.0,505.0,505.0,505.0,501.0,501.0,518.0,518.0,518.0,518.0,518.0,518.0,518.0,518.0,518.0,518.0,518.0,518.0,518.0,518.0,518.0,518.0,518.0,518.0,523.0,523.0,513.0,505.0,523.0,500,500,500,5.0,6.0,5.0
0,509.2,504.1333333333333,524.6666666666666,503.0,501.0,523.0,512.0,512.0,512.0,512.0,512.0,512.0,512.0,512.0,512.0,512.0,503.0,503.0,503.0,503.0,503.0,503.0,503.0,503.0,503.0,503.0,501.0,501.0,501.0,501.0,501.0,501.0,501.0,501.0,501.0,501.0,508.0,508.0,508.0,508.0,508.0,508.0,508.0,508.0,508.0,508.0,523.0,523.0,523.0,523.0,523.0,523.0,523.0,523.0,523.0,523.0,531.0,531.0,531.0,531.0,531.0,531.0,531.0,531.0,531.0,531.0,512.0,508.0,531.0,500,500,500,10.0,7.0,13.0
0,499.4,519.2333333333333,521.2333333333333,493.0,519.0,512.0,500.0,500.0,500.0,500.0,500.0,500.0,500.0,500.0,500.0,500.0,500.0,493.0,493.0,493.0,493.0,493.0,493.0,493.0,493.0,493.0,519.0,519.0,519.0,519.0,519.0,519.0,519.0,519.0,519.0,519.0,519.0,531.0,531.0,531.0,531.0,531.0,531.0,531.0,531.0,531.0,521.0,521.0,521.0,521.0,521.0,521.0,521.0,521.0,521.0,521.0,521.0,512.0,512.0,512.0,512.0,512.0,512.0,512.0,512.0,512.0,500.0,531.0,521.0,500,500,500,10.0,23.0,19.0
0,493.73333333333335,530.2,511.2,492.0,531.0,502.0,493.0,493.0,493.0,493.0,493.0,493.0,493.0,493.0,493.0,493.0,493.0,493.0,492.0,492.0,492.0,492.0,492.0,492.0,492.0,492.0,531.0,531.0,531.0,531.0,531.0,531.0,531.0,531.0,531.0,531.0,531.0,531.0,535.0,535.0,535.0,535.0,535.0,535.0,535.0,535.0,512.0,512.0,512.0,512.0,512.0,512.0,512.0,512.0,512.0,512.0,512.0,512.0,502.0,502.0,502.0,502.0,502.0,502.0,502.0,502.0,493.0,535.0,512.0,500,500,500,8.0,16.0,19.0
0,492.0,534.5333333333333,500.8333333333333,492.0,533.0,497.0,492.0,492.0,492.0,492.0,492.0,492.0,492.0,492.0,492.0,492.0,492.0,492.0,492.0,492.0,492.0,492.0,492.0,492.0,492.0,492.0,535.0,535.0,535.0,535.0,535.0,535.0,535.0,535.0,535.0,535.0,535.0,535.0,533.0,533.0,533.0,533.0,533.0,533.0,533.0,533.0,502.0,502.0,502.0,502.0,502.0,502.0,502.0,502.0,502.0,502.0,502.0,502.0,497.0,497.0,497.0,497.0,497.0,497.0,497.0,497.0,492.0,535.0,502.0,500,500,500,0.0,2.0,5.0
0,489.5,527.4,503.53333333333336,477.0,501.0,497.0,492.0,492.0,492.0,492.0,492.0,492.0,492.0,492.0,492.0,492.0,492.0,477.0,477.0,477.0,477.0,477.0,492.0,492.0,492.0,492.0,533.0,533.0,533.0,533.0,533.0,533.0,533.0,533.0,533.0,533.0,533.0,523.0,523.0,523.0,523.0,523.0,501.0,501.0,501.0,501.0,497.0,497.0,497.0,497.0,497.0,497.0,497.0,497.0,497.0,497.0,497.0,516.0,516.0,516.0,516.0,516.0,516.0,516.0,516.0,516.0,492.0,533.0,516.0,500,500,500,15.0,34.0,19.0
0,496.03333333333336,498.0,516.8,492.0,491.0,504.0,492.0,492.0,492.0,492.0,492.0,502.0,502.0,502.0,502.0,502.0,502.0,502.0,502.0,502.0,502.0,508.0,508.0,508.0,508.0,508.0,501.0,501.0,501.0,501.0,501.0,491.0,491.0,491.0,491.0,491.0,491.0,491.0,491.0,491.0,491.0,509.0,509.0,509.0,509.0,509.0,516.0,516.0,516.0,516.0,516.0,519.0,519.0,519.0,519.0,519.0,519.0,519.0,519.0,519.0,519.0,504.0,504.0,504.0,504.0,504.0,508.0,509.0,519.0,500,500,500,31.0,32.0,15.0
0,507.26666666666665,519.6333333333333,497.76666666666665,506.0,509.0,487.0,508.0,508.0,508.0,508.0,508.0,508.0,508.0,508.0,508.0,506.0,506.0,506.0,506.0,506.0,506.0,506.0,506.0,506.0,506.0,506.0,509.0,509.0,509.0,509.0,509.0,509.0,509.0,509.0,509.0,538.0,538.0,538.0,538.0,538.0,538.0,538.0,538.0,538.0,538.0,538.0,504.0,504.0,504.0,504.0,504.0,504.0,504.0,504.0,504.0,487.0,487.0,487.0,487.0,487.0,487.0,487.0,487.0,487.0,487.0,487.0,508.0,538.0,504.0,500,500,500,2.0,29.0,17.0
0,502.56666666666666,554.1666666666666,482.6333333333333,499.0,558.0,479.0,502.0,502.0,502.0,502.0,502.0,502.0,502.0,502.0,502.0,502.0,502.0,502.0,502.0,502.0,499.0,499.0,499.0,499.0,499.0,499.0,558.0,558.0,558.0,558.0,558.0,558.0,558.0,558.0,558.0,558.0,558.0,558.0,558.0,558.0,567.0,567.0,567.0,567.0,567.0,567.0,479.0,479.0,479.0,479.0,479.0,479.0,479.0,479.0,479.0,479.0,479.0,479.0,479.0,479.0,488.0,488.0,488.0,488.0,488.0,488.0,502.0,567.0,488.0,500,500,500,7.0,29.0,9.0
0,504.8666666666667,558.9333333333333,494.23333333333335,499.0,545.0,488.0,499.0,499.0,499.0,499.0,499.0,499.0,499.0,499.0,499.0,515.0,515.0,515.0,515.0,515.0,515.0,515.0,515.0,515.0,515.0,515.0,567.0,567.0,567.0,567.0,567.0,567.0,567.0,567.0,567.0,545.0,545.0,545.0,545.0,545.0,545.0,545.0,545.0,545.0,545.0,545.0,488.0,488.0,488.0,488.0,488.0,488.0,488.0,488.0,488.0,505.0,505.0,505.0,505.0,505.0,505.0,505.0,505.0,505.0,505.0,505.0,515.0,567.0,505.0,500,500,500,16.0,22.0,17.0
0,516.0,525.2,517.5333333333333,515.0,515.0,521.0,515.0,515.0,515.0,515.0,515.0,517.0,517.0,517.0,517.0,517.0,517.0,517.0,517.0,517.0,517.0,517.0,517.0,517.0,517.0,517.0,527.0,527.0,527.0,527.0,527.0,515.0,515.0,515.0,515.0,515.0,515.0,515.0,515.0,515.0,515.0,515.0,515.0,515.0,515.0,515.0,522.0,522.0,522.0,522.0,522.0,521.0,521.0,521.0,521.0,521.0,521.0,521.0,521.0,521.0,521.0,521.0,521.0,521.0,521.0,521.0,517.0,527.0,522.0,500,500,500,2.0,30.0,17.0
0,516.0666666666667,515.9333333333333,519.1333333333333,515.0,506.0,516.0,517.0,517.0,517.0,517.0,517.0,515.0,515.0,515.0,515.0,515.0,515.0,515.0,515.0,515.0,515.0,515.0,515.0,515.0,515.0,508.0,515.0,515.0,515.0,515.0,515.0,517.0,517.0,517.0,517.0,517.0,517.0,517.0,517.0,517.0,517.0,517.0,517.0,517.0,517.0,506.0,521.0,521.0,521.0,521.0,521.0,517.0,517.0,517.0,517.0,517.0,517.0,517.0,517.0,517.0,517.0,517.0,517.0,517.0,517.0,516.0,517.0,517.0,521.0,500,500,500,2.0,2.0,4.0
0,511.5,511.23333333333335,516.3,507.0,503.0,511.0,515.0,515.0,515.0,515.0,515.0,508.0,508.0,508.0,508.0,508.0,508.0,508.0,508.0,508.0,508.0,508.0,508.0,507.0,507.0,507.0,517.0,517.0,517.0,517.0,517.0,506.0,506.0,506.0,506.0,506.0,506.0,506.0,506.0,506.0,506.0,506.0,506.0,503.0,503.0,503.0,517.0,517.0,517.0,517.0,517.0,516.0,516.0,516.0,516.0,516.0,516.0,516.0,516.0,516.0,516.0,516.0,516.0,511.0,511.0,511.0,515.0,517.0,517.0,500,500,500,10.0,14.0,10.0
0,506.3333333333333,506.4,516.6666666666666,504.0,503.0,511.0,507.0,507.0,507.0,507.0,507.0,507.0,507.0,507.0,507.0,507.0,504.0,504.0,504.0,504.0,504.0,504.0,504.0,504.0,504.0,504.0,503.0,503.0,503.0,503.0,503.0,503.0,503.0,503.0,503.0,503.0,512.0,512.0,512.0,512.0,512.0,512.0,512.0,512.0,512.0,512.0,511.0,511.0,511.0,511.0,511.0,511.0,511.0,511.0,511.0,511.0,526.0,526.0,526.0,526.0,526.0,526.0,526.0,526.0,526.0,526.0,507.0,512.0,526.0,500,500,500,4.0,9.0,15.0
0,504.1,511.7,525.5,504.0,512.0,526.0,504.0,504.0,504.0,504.0,504.0,504.0,504.0,504.0,504.0,504.0,504.0,504.0,504.0,504.0,504.0,504.0,504.0,504.0,504.0,504.0,512.0,512.0,512.0,512.0,512.0,512.0,512.0,512.0,512.0,512.0,512.0,512.0,512.0,512.0,512.0,512.0,512.0,512.0,512.0,512.0,526.0,526.0,526.0,526.0,526.0,526.0,526.0,526.0,526.0,526.0,526.0,526.0,526.0,526.0,526.0,526.0,526.0,526.0,526.0,526.0,504.0,512.0,526.0,500,500,500,3.0,9.0,15.0
0,503.8666666666667,511.03333333333336,520.7666666666667,500.0,499.0,511.0,504.0,504.0,504.0,504.0,504.0,504.0,504.0,504.0,504.0,505.0,505.0,505.0,505.0,505.0,505.0,505.0,500.0,500.0,500.0,500.0,512.0,512.0,512.0,512.0,512.0,512.0,512.0,512.0,512.0,499.0,499.0,499.0,499.0,499.0,499.0,499.0,537.0,537.0,537.0,537.0,526.0,526.0,526.0,526.0,526.0,526.0,526.0,526.0,526.0,512.0,512.0,512.0,512.0,512.0,512.0,512.0,511.0,511.0,511.0,511.0,505.0,537.0,526.0,500,500,500,5.0,38.0,15.0
0,498.26666666666665,534.8333333333334,511.43333333333334,496.0,532.0,511.0,500.0,500.0,500.0,500.0,500.0,500.0,496.0,496.0,496.0,496.0,496.0,496.0,496.0,496.0,496.0,496.0,496.0,496.0,496.0,496.0,537.0,537.0,537.0,537.0,537.0,537.0,532.0,532.0,532.0,532.0,532.0,532.0,532.0,532.0,532.0,532.0,532.0,532.0,532.0,532.0,511.0,511.0,511.0,511.0,511.0,511.0,512.0,512.0,512.0,512.0,512.0,512.0,512.0,512.0,512.0,512.0,512.0,512.0,512.0,512.0,500.0,537.0,512.0,500,500,500,4.0,5.0,1.0
0,498.8333333333333,515.2333333333333,510.46666666666664,497.0,503.0,509.0,497.0,497.0,497.0,497.0,497.0,497.0,497.0,502.0,502.0,502.0,502.0,502.0,502.0,502.0,502.0,502.0,502.0,502.0,502.0,502.0,514.0,514.0,514.0,514.0,514.0,514.0,514.0,503.0,503.0,503.0,503.0,503.0,503.0,503.0,503.0,503.0,503.0,503.0,503.0,503.0,511.0,511.0,511.0,511.0,511.0,511.0,511.0,509.0,509.0,509.0,509.0,509.0,509.0,509.0,509.0,509.0,509.0,509.0,509.0,509.0,502.0,514.0,511.0,500,500,500,6.0,29.0,3.0
0,503.46666666666664,506.43333333333334,506.1333333333333,502.0,503.0,497.0,502.0,502.0,502.0,502.0,502.0,502.0,505.0,505.0,505.0,505.0,505.0,505.0,505.0,505.0,505.0,511.0,511.0,511.0,511.0,511.0,503.0,503.0,503.0,503.0,503.0,503.0,507.0,507.0,507.0,507.0,507.0,507.0,507.0,507.0,507.0,518.0,518.0,518.0,518.0,518.0,509.0,509.0,509.0,509.0,509.0,509.0,503.0,503.0,503.0,503.0,503.0,503.0,503.0,503.0,503.0,497.0,497.0,497.0,497.0,497.0,511.0,518.0,509.0,500,500,500,14.0,15.0,14.0
0,510.5,516.6333333333333,496.4,511.0,518.0,483.0,511.0,511.0,511.0,511.0,511.0,511.0,511.0,511.0,511.0,511.0,511.0,511.0,511.0,511.0,511.0,511.0,511.0,514.0,514.0,514.0,518.0,518.0,518.0,518.0,518.0,518.0,518.0,518.0,518.0,518.0,518.0,518.0,518.0,518.0,518.0,518.0,518.0,519.0,519.0,519.0,497.0,497.0,497.0,497.0,497.0,497.0,497.0,497.0,497.0,497.0,497.0,497.0,497.0,497.0,497.0,497.0,497.0,483.0,483.0,483.0,514.0,519.0,497.0,500,500,500,9.0,12.0,20.0
0,514.0,517.5,488.5,514.0,516.0,483.0,514.0,514.0,514.0,514.0,514.0,514.0,514.0,514.0,514.0,514.0,514.0,514.0,514.0,514.0,514.0,514.0,514.0,514.0,514.0,514.0,519.0,519.0,519.0,519.0,519.0,516.0,516.0,516.0,516.0,516.0,516.0,516.0,516.0,516.0,516.0,516.0,516.0,516.0,516.0,516.0,483.0,483.0,483.0,483.0,483.0,494.0,494.0,494.0,494.0,494.0,494.0,494.0,494.0,494.0,494.0,494.0,494.0,494.0,494.0,494.0,514.0,519.0,494.0,500,500,500,0.0,3.0,11.0
0,513.1,510.0,499.7,512.0,501.0,494.0,514.0,514.0,512.0,512.0,512.0,512.0,512.0,512.0,512.0,512.0,513.0,513.0,513.0,513.0,513.0,513.0,513.0,513.0,513.0,513.0,516.0,516.0,501.0,501.0,501.0,501.0,501.0,501.0,501.0,501.0,511.0,511.0,511.0,511.0,511.0,511.0,511.0,511.0,511.0,511.0,494.0,494.0,502.0,502.0,502.0,502.0,502.0,502.0,502.0,502.0,505.0,505.0,505.0,505.0,505.0,505.0,505.0,505.0,505.0,505.0,514.0,516.0,505.0,500,500,500,2.0,15.0,11.0
0,512.8333333333334,508.6,503.53333333333336,512.0,503.0,501.0,513.0,513.0,513.0,513.0,513.0,512.0,512.0,512.0,512.0,512.0,512.0,512.0,512.0,512.0,514.0,514.0,514.0,514.0,514.0,514.0,511.0,511.0,511.0,511.0,511.0,503.0,503.0,503.0,503.0,503.0,503.0,503.0,503.0,503.0,513.0,513.0,513.0,513.0,513.0,513.0,505.0,505.0,505.0,505.0,505.0,501.0,501.0,501.0,501.0,501.0,501.0,501.0,501.0,501.0,504.0,504.0,504.0,504.0,504.0,504.0,514.0,513.0,505.0,500,500,500,2.0,12.0,4.0
0,513.1333333333333,509.3333333333333,503.03333333333336,510.0,503.0,503.0,514.0,514.0,514.0,514.0,514.0,514.0,514.0,514.0,514.0,514.0,514.0,514.0,514.0,514.0,514.0,514.0,510.0,510.0,510.0,510.0,513.0,513.0,513.0,513.0,513.0,513.0,513.0,513.0,513.0,513.0,513.0,513.0,513.0,513.0,513.0,513.0,503.0,503.0,503.0,503.0,504.0,504.0,504.0,504.0,504.0,504.0,504.0,504.0,504.0,504.0,504.0,504.0,504.0,504.0,504.0,504.0,503.0,503.0,503.0,503.0,514.0,513.0,504.0,500,500,500,4.0,10.0,3.0
0,511.3,505.6,504.3,510.0,503.0,503.0,510.0,510.0,510.0,510.0,510.0,510.0,510.0,513.0,513.0,513.0,513.0,513.0,513.0,513.0,513.0,513.0,513.0,513.0,513.0,513.0,503.0,503.0,503.0,503.0,503.0,503.0,503.0,509.0,509.0,509.0,509.0,509.0,509.0,509.0,509.0,509.0,509.0,509.0,509.0,509.0,503.0,503.0,503.0,503.0,503.0,503.0,503.0,506.0,506.0,506.0,506.0,506.0,506.0,506.0,506.0,506.0,506.0,506.0,506.0,506.0,513.0,509.0,506.0,500,500,500,3.0,6.0,3.0
0,512.5,510.1333333333333,504.7,513.0,509.0,503.0,513.0,513.0,513.0,513.0,513.0,513.0,513.0,513.0,513.0,513.0,513.0,513.0,513.0,513.0,513.0,513.0,513.0,513.0,513.0,512.0,509.0,509.0,509.0,509.0,509.0,509.0,509.0,509.0,509.0,509.0,509.0,517.0,517.0,517.0,517.0,517.0,517.0,517.0,517.0,520.0,506.0,506.0,506.0,506.0,506.0,506.0,506.0,506.0,506.0,506.0,506.0,503.0,503.0,503.0,503.0,503.0,503.0,503.0,503.0,512.0,513.0,520.0,512.0,500,500,500,3.0,14.0,3.0
0,512.0666666666667,512.5333333333333,506.6,511.0,493.0,500.0,512.0,512.0,512.0,512.0,512.0,512.0,512.0,512.0,512.0,512.0,512.0,512.0,512.0,511.0,511.0,511.0,511.0,511.0,511.0,511.0,520.0,520.0,520.0,520.0,520.0,520.0,520.0,520.0,520.0,520.0,520.0,520.0,520.0,493.0,493.0,493.0,493.0,493.0,493.0,493.0,512.0,512.0,512.0,512.0,512.0,512.0,512.0,512.0,512.0,512.0,512.0,512.0,512.0,500.0,500.0,500.0,500.0,500.0,500.0,500.0,512.0,520.0,512.0,500,500,500,2.0,27.0,12.0
0,511.8666666666667,491.26666666666665,500.0,511.0,489.0,500.0,511.0,511.0,511.0,511.0,511.0,511.0,511.0,513.0,513.0,513.0,513.0,513.0,513.0,513.0,513.0,513.0,513.0,513.0,513.0,513.0,493.0,493.0,493.0,493.0,493.0,493.0,493.0,489.0,489.0,489.0,489.0,489.0,489.0,489.0,489.0,489.0,489.0,489.0,489.0,489.0,500.0,500.0,500.0,500.0,500.0,500.0,500.0,500.0,500.0,500.0,500.0,500.0,500.0,500.0,500.0,500.0,500.0,500.0,500.0,500.0,513.0,493.0,500.0,500,500,500,2.0,4.0,0.0
0,511.0,490.6333333333333,504.76666666666665,509.0,488.0,500.0,513.0,513.0,513.0,513.0,513.0,509.0,509.0,509.0,509.0,509.0,509.0,509.0,509.0,509.0,509.0,509.0,509.0,509.0,509.0,509.0,489.0,489.0,489.0,489.0,489.0,488.0,488.0,488.0,488.0,488.0,488.0,488.0,496.0,496.0,496.0,496.0,496.0,496.0,496.0,496.0,500.0,500.0,500.0,500.0,500.0,509.0,509.0,509.0,509.0,509.0,509.0,509.0,510.0,510.0,510.0,510.0,510.0,510.0,510.0,510.0,513.0,496.0,510.0,500,500,500,4.0,8.0,10.0
0,508.2,496.26666666666665,509.73333333333335,506.0,496.0,509.0,509.0,509.0,509.0,509.0,509.0,509.0,509.0,509.0,509.0,509.0,509.0,509.0,506.0,506.0,506.0,506.0,506.0,506.0,506.0,506.0,496.0,496.0,496.0,496.0,496.0,496.0,496.0,496.0,496.0,496.0,496.0,496.0,497.0,497.0,497.0,497.0,497.0,497.0,497.0,497.0,510.0,510.0,510.0,510.0,510.0,510.0,510.0,510.0,510.0,510.0,510.0,510.0,509.0,509.0,509.0,509.0,509.0,509.0,509.0,509.0,509.0,497.0,510.0,500,500,500,3.0,1.0,1.0
0,505.8,499.8,508.8,505.0,497.0,508.0,506.0,506.0,506.0,506.0,506.0,506.0,506.0,506.0,506.0,506.0,506.0,506.0,506.0,506.0,505.0,505.0,505.0,505.0,505.0,505.0,497.0,497.0,497.0,497.0,497.0,497.0,497.0,497.0,497.0,497.0,497.0,497.0,497.0,497.0,511.0,511.0,511.0,511.0,511.0,511.0,509.0,509.0,509.0,509.0,509.0,509.0,509.0,509.0,509.0,509.0,509.0,509.0,509.0,509.0,508.0,508.0,508.0,508.0,508.0,508.0,506.0,511.0,509.0,500,500,500,1.0,14.0,1.0
0,504.3,510.4,508.5,501.0,511.0,508.0,505.0,505.0,505.0,505.0,505.0,505.0,505.0,505.0,505.0,505.0,505.0,505.0,505.0,505.0,501.0,501.0,501.0,501.0,501.0,501.0,511.0,511.0,511.0,511.0,511.0,511.0,511.0,511.0,511.0,511.0,511.0,511.0,511.0,511.0,515.0,515.0,515.0,515.0,515.0,515.0,508.0,508.0,508.0,508.0,508.0,508.0,508.0,508.0,508.0,508.0,508.0,508.0,508.0,508.0,510.0,510.0,510.0,510.0,510.0,510.0,505.0,515.0,510.0,500,500,500,5.0,18.0,2.0
0,500.0,529.0,512.0,499.0,515.0,510.0,501.0,501.0,501.0,499.0,499.0,499.0,499.0,499.0,499.0,499.0,499.0,499.0,499.0,499.0,499.0,499.0,499.0,499.0,499.0,499.0,515.0,515.0,515.0,543.0,543.0,543.0,543.0,543.0,543.0,543.0,543.0,543.0,543.0,543.0,543.0,543.0,543.0,543.0,543.0,543.0,510.0,510.0,510.0,514.0,514.0,514.0,514.0,514.0,514.0,514.0,514.0,514.0,514.0,514.0,514.0,514.0,514.0,514.0,514.0,514.0,501.0,543.0,514.0,500,500,500,2.0,28.0,4.0
0,500.26666666666665,534.3,513.2,499.0,516.0,511.0,499.0,499.0,499.0,499.0,499.0,499.0,501.0,501.0,501.0,501.0,501.0,501.0,503.0,503.0,503.0,503.0,503.0,503.0,503.0,503.0,543.0,543.0,543.0,543.0,543.0,543.0,529.0,529.0,529.0,529.0,529.0,529.0,516.0,516.0,516.0,516.0,516.0,516.0,516.0,516.0,514.0,514.0,514.0,514.0,514.0,514.0,513.0,513.0,513.0,513.0,513.0,513.0,511.0,511.0,511.0,511.0,511.0,511.0,511.0,511.0,503.0,543.0,514.0,500,500,500,4.0,27.0,3.0
0,503.6,512.2,510.0,503.0,497.0,506.0,503.0,503.0,503.0,503.0,503.0,503.0,503.0,503.0,503.0,503.0,503.0,503.0,503.0,503.0,506.0,506.0,506.0,506.0,506.0,506.0,516.0,516.0,516.0,516.0,516.0,516.0,516.0,516.0,516.0,516.0,516.0,516.0,516.0,516.0,497.0,497.0,497.0,497.0,497.0,497.0,511.0,511.0,511.0,511.0,511.0,511.0,511.0,511.0,511.0,511.0,511.0,511.0,511.0,511.0,506.0,506.0,506.0,506.0,506.0,506.0,506.0,516.0,511.0,500,500,500,3.0,19.0,5.0
0,505.6666666666667,499.0,506.3333333333333,505.0,497.0,506.0,506.0,506.0,506.0,506.0,506.0,506.0,506.0,505.0,505.0,505.0,505.0,505.0,505.0,505.0,505.0,505.0,505.0,505.0,507.0,507.0,497.0,497.0,497.0,497.0,497.0,497.0,497.0,503.0,503.0,503.0,503.0,503.0,503.0,503.0,503.0,503.0,503.0,503.0,499.0,499.0,506.0,506.0,506.0,506.0,506.0,506.0,506.0,507.0,507.0,507.0,507.0,507.0,507.0,507.0,507.0,507.0,507.0,507.0,512.0,512.0,506.0,503.0,507.0,500,500,500,1.0,6.0,1.0
0,506.46666666666664,500.46666666666664,509.96666666666664,505.0,499.0,507.0,505.0,507.0,507.0,507.0,507.0,507.0,507.0,507.0,507.0,507.0,507.0,507.0,507.0,507.0,507.0,507.0,507.0,509.0,509.0,509.0,503.0,499.0,499.0,499.0,499.0,499.0,499.0,499.0,499.0,499.0,499.0,499.0,499.0,499.0,499.0,499.0,499.0,499.0,499.0,499.0,507.0,512.0,512.0,512.0,512.0,512.0,512.0,512.0,512.0,512.0,512.0,512.0,512.0,512.0,512.0,512.0,512.0,510.0,510.0,510.0,509.0,503.0,512.0,500,500,500,4.0,4.0,5.0
0,510.3333333333333,502.73333333333335,511.46666666666664,509.0,499.0,510.0,509.0,509.0,509.0,509.0,512.0,512.0,512.0,512.0,512.0,512.0,512.0,512.0,512.0,512.0,512.0,512.0,512.0,512.0,512.0,515.0,499.0,499.0,499.0,499.0,507.0,507.0,507.0,507.0,507.0,507.0,507.0,507.0,507.0,507.0,507.0,507.0,507.0,507.0,507.0,507.0,510.0,510.0,510.0,510.0,513.0,513.0,513.0,513.0,513.0,513.0,513.0,513.0,513.0,513.0,513.0,513.0,513.0,513.0,513.0,511.0,512.0,507.0,513.0,500,500,500,5.0,8.0,3.0
0,513.4,511.8,514.7333333333333,512.0,507.0,511.0,515.0,515.0,515.0,512.0,512.0,512.0,512.0,512.0,512.0,512.0,512.0,512.0,512.0,512.0,512.0,512.0,512.0,512.0,512.0,512.0,507.0,507.0,507.0,516.0,516.0,516.0,516.0,516.0,516.0,516.0,516.0,516.0,516.0,516.0,516.0,516.0,516.0,516.0,516.0,516.0,511.0,511.0,511.0,518.0,518.0,518.0,518.0,518.0,518.0,518.0,518.0,518.0,518.0,518.0,518.0,518.0,518.0,518.0,518.0,518.0,515.0,516.0,518.0,500,500,500,3.0,9.0,7.0
0,512.4666666666667,511.56666666666666,519.7,512.0,504.0,518.0,512.0,512.0,512.0,512.0,512.0,512.0,513.0,513.0,513.0,513.0,513.0,513.0,513.0,513.0,513.0,513.0,513.0,513.0,513.0,513.0,516.0,516.0,516.0,516.0,516.0,516.0,504.0,504.0,504.0,504.0,504.0,504.0,504.0,504.0,504.0,511.0,511.0,511.0,511.0,511.0,518.0,518.0,518.0,518.0,518.0,518.0,522.0,522.0,522.0,522.0,522.0,522.0,522.0,522.0,522.0,521.0,521.0,521.0,521.0,521.0,513.0,516.0,522.0,500,500,500,1.0,12.0,4.0
0,512.5666666666667,509.23333333333335,521.9333333333333,512.0,508.0,521.0,513.0,513.0,513.0,513.0,513.0,513.0,513.0,512.0,512.0,512.0,512.0,512.0,512.0,512.0,512.0,512.0,512.0,512.0,512.0,512.0,511.0,511.0,511.0,511.0,511.0,511.0,511.0,508.0,508.0,508.0,508.0,508.0,508.0,508.0,508.0,508.0,508.0,508.0,508.0,508.0,521.0,521.0,521.0,521.0,521.0,521.0,521.0,523.0,523.0,523.0,523.0,523.0,523.0,523.0,523.0,523.0,523.0,523.0,523.0,523.0,513.0,511.0,523.0,500,500,500,1.0,7.0,2.0
0,512.1666666666666,509.8333333333333,522.1333333333333,512.0,497.0,519.0,512.0,512.0,512.0,512.0,512.0,512.0,512.0,512.0,512.0,512.0,512.0,512.0,512.0,512.0,512.0,512.0,513.0,513.0,513.0,513.0,508.0,508.0,508.0,508.0,508.0,508.0,508.0,508.0,508.0,513.0,513.0,513.0,513.0,513.0,513.0,513.0,497.0,497.0,497.0,497.0,523.0,523.0,523.0,523.0,523.0,523.0,523.0,523.0,523.0,521.0,521.0,521.0,521.0,521.0,521.0,521.0,519.0,519.0,519.0,519.0,513.0,513.0,523.0,500,500,500,1.0,5.0,2.0
0,513.0,505.23333333333335,516.8333333333334,513.0,497.0,514.0,513.0,513.0,513.0,513.0,513.0,513.0,513.0,513.0,513.0,513.0,513.0,513.0,513.0,513.0,513.0,513.0,513.0,513.0,513.0,513.0,497.0,497.0,497.0,497.0,497.0,497.0,497.0,516.0,516.0,516.0,516.0,516.0,516.0,516.0,516.0,516.0,516.0,516.0,516.0,516.0,519.0,519.0,519.0,519.0,519.0,519.0,519.0,514.0,514.0,514.0,514.0,514.0,514.0,514.0,514.0,514.0,514.0,514.0,514.0,514.0,513.0,516.0,519.0,500,500,500,0.0,19.0,5.0
0,511.93333333333334,501.3333333333333,512.2666666666667,511.0,494.0,511.0,512.0,512.0,512.0,512.0,512.0,512.0,511.0,511.0,511.0,511.0,511.0,511.0,511.0,511.0,511.0,511.0,511.0,511.0,511.0,511.0,494.0,494.0,494.0,494.0,494.0,494.0,494.0,494.0,494.0,494.0,494.0,494.0,494.0,494.0,494.0,494.0,494.0,494.0,494.0,494.0,512.0,512.0,512.0,512.0,512.0,512.0,511.0,511.0,511.0,511.0,511.0,511.0,511.0,511.0,511.0,511.0,511.0,511.0,511.0,511.0,512.0,494.0,512.0,500,500,500,2.0,22.0,3.0
0,510.23333333333335,496.5,508.1,509.0,494.0,506.0,510.0,510.0,510.0,510.0,510.0,510.0,510.0,510.0,510.0,510.0,510.0,510.0,509.0,509.0,509.0,509.0,509.0,509.0,509.0,509.0,499.0,499.0,499.0,499.0,499.0,499.0,499.0,499.0,499.0,499.0,499.0,499.0,494.0,494.0,494.0,494.0,494.0,494.0,494.0,494.0,506.0,506.0,506.0,506.0,506.0,506.0,506.0,506.0,506.0,506.0,506.0,506.0,508.0,508.0,508.0,508.0,508.0,508.0,508.0,508.0,511.0,499.0,511.0,500,500,500,2.0,5.0,5.0
0,508.73333333333335,497.06666666666666,507.53333333333336,507.0,494.0,507.0,509.0,509.0,509.0,509.0,509.0,509.0,509.0,509.0,509.0,509.0,509.0,509.0,509.0,507.0,507.0,507.0,507.0,507.0,507.0,507.0,494.0,494.0,494.0,494.0,494.0,494.0,494.0,494.0,494.0,494.0,494.0,494.0,494.0,506.0,506.0,506.0,506.0,506.0,506.0,506.0,508.0,508.0,508.0,508.0,508.0,508.0,508.0,508.0,508.0,508.0,508.0,508.0,508.0,507.0,507.0,507.0,507.0,507.0,507.0,507.0,509.0,506.0,508.0,500,500,500,3.0,12.0,2.0
0,506.5,504.8333333333333,505.8333333333333,502.0,506.0,499.0,507.0,507.0,507.0,507.0,507.0,507.0,507.0,507.0,507.0,507.0,507.0,507.0,507.0,507.0,502.0,502.0,502.0,502.0,502.0,502.0,506.0,506.0,506.0,506.0,506.0,506.0,506.0,506.0,506.0,506.0,506.0,506.0,506.0,506.0,511.0,511.0,511.0,511.0,511.0,511.0,507.0,507.0,507.0,507.0,507.0,507.0,507.0,507.0,507.0,507.0,507.0,507.0,507.0,507.0,499.0,499.0,499.0,499.0,499.0,499.0,507.0,511.0,507.0,500,500,500,7.0,17.0,9.0
0,499.06666666666666,526.8666666666667,500.73333333333335,496.0,530.0,501.0,498.0,498.0,498.0,498.0,498.0,498.0,498.0,498.0,498.0,498.0,498.0,498.0,498.0,498.0,496.0,496.0,496.0,496.0,496.0,496.0,536.0,536.0,536.0,536.0,536.0,536.0,536.0,536.0,536.0,536.0,536.0,536.0,536.0,536.0,530.0,530.0,530.0,530.0,530.0,530.0,501.0,501.0,501.0,501.0,501.0,501.0,501.0,501.0,501.0,501.0,501.0,501.0,501.0,501.0,504.0,504.0,504.0,504.0,504.0,504.0,498.0,536.0,504.0,500,500,500,6.0,25.0,5.0
0,498.8,520.9,504.0,500.0,517.0,504.0,500.0,500.0,500.0,500.0,500.0,500.0,500.0,500.0,500.0,500.0,500.0,500.0,500.0,500.0,500.0,500.0,500.0,500.0,500.0,500.0,517.0,517.0,517.0,517.0,517.0,517.0,517.0,517.0,517.0,517.0,517.0,517.0,517.0,517.0,517.0,517.0,517.0,517.0,517.0,517.0,504.0,504.0,504.0,504.0,504.0,504.0,504.0,504.0,504.0,504.0,504.0,504.0,504.0,504.0,504.0,504.0,504.0,504.0,504.0,504.0,500.0,517.0,504.0,500,500,500,4.0,13.0,0.0
0,502.6,499.6,509.8,501.0,496.0,509.0,505.0,505.0,501.0,501.0,501.0,501.0,501.0,501.0,501.0,501.0,501.0,501.0,501.0,501.0,501.0,501.0,501.0,501.0,500.0,500.0,505.0,505.0,496.0,496.0,496.0,496.0,496.0,496.0,496.0,496.0,496.0,496.0,496.0,496.0,496.0,496.0,496.0,496.0,490.0,490.0,511.0,511.0,509.0,509.0,509.0,509.0,509.0,509.0,509.0,509.0,509.0,509.0,509.0,509.0,509.0,509.0,509.0,509.0,506.0,506.0,505.0,505.0,511.0,500,500,500,4.0,9.0,2.0
0,500.3333333333333,494.6666666666667,507.0,499.0,490.0,503.0,501.0,501.0,501.0,501.0,500.0,500.0,500.0,500.0,500.0,500.0,500.0,500.0,500.0,500.0,500.0,499.0,499.0,499.0,499.0,499.0,496.0,496.0,496.0,496.0,490.0,490.0,490.0,490.0,490.0,490.0,490.0,490.0,490.0,490.0,490.0,504.0,504.0,504.0,504.0,504.0,509.0,509.0,509.0,509.0,506.0,506.0,506.0,506.0,506.0,506.0,506.0,506.0,506.0,506.0,506.0,503.0,503.0,503.0,503.0,503.0,501.0,504.0,509.0,500,500,500,2.0,14.0,6.0
0,500.46666666666664,501.06666666666666,501.9,499.0,496.0,500.0,499.0,499.0,499.0,499.0,499.0,499.0,499.0,499.0,499.0,503.0,503.0,503.0,503.0,503.0,503.0,503.0,503.0,503.0,503.0,503.0,504.0,504.0,504.0,504.0,504.0,504.0,504.0,504.0,504.0,496.0,496.0,496.0,496.0,496.0,496.0,496.0,496.0,496.0,496.0,496.0,503.0,503.0,503.0,503.0,503.0,503.0,503.0,503.0,503.0,500.0,500.0,500.0,500.0,500.0,500.0,500.0,500.0,500.0,500.0,500.0,503.0,504.0,503.0,500,500,500,4.0,8.0,3.0
0,507.1333333333333,505.1333333333333,501.96666666666664,506.0,506.0,501.0,506.0,506.0,506.0,506.0,506.0,506.0,506.0,506.0,506.0,511.0,511.0,511.0,511.0,511.0,511.0,511.0,511.0,511.0,511.0,511.0,506.0,506.0,506.0,506.0,506.0,506.0,506.0,506.0,506.0,510.0,510.0,510.0,510.0,510.0,510.0,510.0,510.0,510.0,510.0,510.0,504.0,504.0,504.0,504.0,504.0,504.0,504.0,504.0,504.0,501.0,501.0,501.0,501.0,501.0,501.0,501.0,501.0,501.0,501.0,501.0,511.0,510.0,504.0,500,500,500,8.0,14.0,4.0
0,512.4666666666667,506.3333333333333,504.46666666666664,511.0,498.0,501.0,511.0,511.0,511.0,513.0,513.0,513.0,513.0,513.0,513.0,513.0,513.0,515.0,515.0,515.0,515.0,515.0,515.0,515.0,515.0,515.0,510.0,510.0,510.0,498.0,498.0,498.0,498.0,498.0,498.0,498.0,498.0,508.0,508.0,508.0,508.0,508.0,508.0,508.0,508.0,508.0,501.0,501.0,501.0,501.0,501.0,501.0,501.0,501.0,501.0,501.0,501.0,514.0,514.0,514.0,514.0,514.0,514.0,514.0,514.0,514.0,515.0,510.0,514.0,500,500,500,4.0,12.0,13.0
0,513.7666666666667,506.26666666666665,513.5666666666667,510.0,502.0,514.0,515.0,515.0,515.0,515.0,515.0,515.0,515.0,515.0,515.0,515.0,515.0,515.0,510.0,510.0,510.0,510.0,510.0,510.0,510.0,510.0,508.0,508.0,508.0,508.0,508.0,508.0,508.0,508.0,508.0,508.0,508.0,508.0,502.0,502.0,502.0,502.0,502.0,502.0,502.0,502.0,514.0,514.0,514.0,514.0,514.0,514.0,514.0,514.0,514.0,514.0,514.0,514.0,514.0,514.0,514.0,514.0,514.0,514.0,514.0,514.0,515.0,508.0,514.0,500,500,500,5.0,10.0,13.0
0,511.1666666666667,503.1333333333333,513.8,505.0,488.0,511.0,510.0,510.0,510.0,510.0,510.0,510.0,510.0,510.0,510.0,510.0,510.0,510.0,510.0,510.0,505.0,505.0,505.0,505.0,505.0,505.0,502.0,502.0,502.0,502.0,502.0,502.0,502.0,502.0,502.0,502.0,502.0,502.0,502.0,502.0,488.0,488.0,488.0,488.0,488.0,488.0,514.0,514.0,514.0,514.0,514.0,514.0,514.0,514.0,514.0,514.0,514.0,514.0,514.0,514.0,511.0,511.0,511.0,511.0,511.0,511.0,510.0,502.0,514.0,500,500,500,10.0,20.0,3.0
0,504.5,488.46666666666664,512.1,503.0,488.0,511.0,505.0,505.0,505.0,505.0,505.0,505.0,505.0,505.0,505.0,505.0,503.0,503.0,503.0,503.0,503.0,503.0,503.0,503.0,503.0,503.0,488.0,488.0,488.0,488.0,488.0,488.0,488.0,488.0,488.0,488.0,488.0,488.0,488.0,488.0,488.0,488.0,488.0,488.0,488.0,488.0,511.0,511.0,511.0,511.0,511.0,511.0,511.0,511.0,511.0,511.0,514.0,514.0,514.0,514.0,514.0,514.0,514.0,514.0,514.0,514.0,505.0,488.0,514.0,500,500,500,7.0,14.0,3.0
0,502.43333333333334,478.3333333333333,509.56666666666666,501.0,468.0,507.0,504.0,504.0,504.0,504.0,504.0,501.0,501.0,501.0,501.0,501.0,501.0,501.0,501.0,501.0,501.0,501.0,501.0,501.0,501.0,501.0,468.0,468.0,468.0,468.0,468.0,483.0,483.0,483.0,483.0,483.0,483.0,483.0,483.0,483.0,483.0,483.0,483.0,483.0,490.0,490.0,507.0,507.0,507.0,507.0,507.0,510.0,510.0,510.0,510.0,510.0,510.0,510.0,510.0,510.0,510.0,510.0,510.0,510.0,497.0,497.0,504.0,483.0,510.0,500,500,500,3.0,20.0,7.0
0,501.8,491.5,498.3666666666667,501.0,490.0,494.0,501.0,501.0,501.0,501.0,501.0,501.0,501.0,501.0,501.0,501.0,501.0,501.0,504.0,504.0,504.0,504.0,504.0,504.0,504.0,504.0,490.0,490.0,490.0,490.0,490.0,490.0,490.0,490.0,490.0,490.0,490.0,490.0,500.0,500.0,500.0,500.0,500.0,500.0,500.0,500.0,497.0,497.0,497.0,497.0,497.0,497.0,497.0,497.0,497.0,497.0,497.0,497.0,494.0,494.0,494.0,494.0,494.0,494.0,494.0,494.0,504.0,500.0,497.0,500,500,500,3.0,17.0,16.0
0,507.26666666666665,499.53333333333336,497.73333333333335,504.0,499.0,494.0,504.0,504.0,504.0,504.0,504.0,511.0,511.0,511.0,511.0,511.0,511.0,511.0,511.0,511.0,511.0,511.0,511.0,511.0,514.0,514.0,500.0,500.0,500.0,500.0,500.0,499.0,499.0,499.0,499.0,499.0,499.0,499.0,499.0,499.0,499.0,499.0,499.0,499.0,523.0,523.0,494.0,494.0,494.0,494.0,494.0,502.0,502.0,502.0,502.0,502.0,502.0,502.0,502.0,502.0,502.0,502.0,502.0,502.0,509.0,509.0,511.0,500.0,502.0,500,500,500,7.0,1.0,8.0
0,512.6333333333333,516.2333333333333,506.3666666666667,511.0,499.0,502.0,511.0,511.0,514.0,514.0,514.0,514.0,514.0,514.0,514.0,514.0,514.0,514.0,514.0,514.0,514.0,513.0,513.0,513.0,513.0,513.0,499.0,499.0,523.0,523.0,523.0,523.0,523.0,523.0,523.0,523.0,523.0,523.0,523.0,523.0,523.0,540.0,540.0,540.0,540.0,540.0,502.0,502.0,509.0,509.0,509.0,509.0,509.0,509.0,509.0,509.0,509.0,509.0,509.0,509.0,509.0,510.0,510.0,510.0,510.0,510.0,514.0,540.0,510.0,500,500,500,3.0,41.0,8.0
0,511.8333333333333,543.4333333333333,509.1666666666667,510.0,540.0,508.0,513.0,513.0,513.0,513.0,513.0,513.0,510.0,510.0,510.0,510.0,510.0,510.0,510.0,510.0,510.0,510.0,510.0,510.0,510.0,510.0,540.0,540.0,540.0,540.0,540.0,540.0,550.0,550.0,550.0,550.0,550.0,550.0,550.0,550.0,550.0,550.0,550.0,550.0,550.0,550.0,510.0,510.0,510.0,510.0,510.0,510.0,508.0,508.0,508.0,508.0,508.0,508.0,508.0,508.0,508.0,508.0,508.0,508.0,508.0,508.0,513.0,550.0,510.0,500,500,500,4.0,27.0,2.0
0,504.6666666666667,545.6666666666666,503.8333333333333,491.0,535.0,489.0,510.0,510.0,510.0,510.0,510.0,510.0,510.0,510.0,510.0,498.0,498.0,498.0,498.0,498.0,498.0,491.0,491.0,491.0,491.0,491.0,550.0,550.0,550.0,550.0,550.0,550.0,550.0,550.0,550.0,540.0,540.0,540.0,540.0,540.0,540.0,535.0,535.0,535.0,535.0,535.0,508.0,508.0,508.0,508.0,508.0,508.0,508.0,508.0,508.0,501.0,501.0,501.0,501.0,501.0,501.0,489.0,489.0,489.0,489.0,489.0,510.0,550.0,508.0,500,500,500,19.0,15.0,19.0
0,491.3,532.7,491.26666666666665,488.0,514.0,489.0,491.0,491.0,491.0,491.0,491.0,491.0,491.0,491.0,491.0,491.0,491.0,491.0,491.0,491.0,491.0,488.0,488.0,488.0,488.0,488.0,535.0,535.0,535.0,535.0,535.0,535.0,535.0,535.0,535.0,535.0,535.0,535.0,535.0,535.0,535.0,514.0,514.0,514.0,514.0,514.0,489.0,489.0,489.0,489.0,489.0,489.0,489.0,489.0,489.0,489.0,489.0,489.0,489.0,489.0,489.0,497.0,497.0,497.0,497.0,497.0,491.0,535.0,497.0,500,500,500,10.0,26.0,12.0
0,490.3,523.4333333333333,494.73333333333335,488.0,514.0,489.0,491.0,488.0,488.0,488.0,488.0,488.0,488.0,488.0,488.0,488.0,488.0,488.0,488.0,488.0,488.0,488.0,497.0,497.0,497.0,497.0,535.0,514.0,514.0,514.0,514.0,514.0,514.0,514.0,514.0,514.0,514.0,514.0,514.0,514.0,514.0,514.0,527.0,527.0,527.0,527.0,489.0,497.0,497.0,497.0,497.0,497.0,497.0,497.0,497.0,497.0,497.0,497.0,497.0,497.0,497.0,502.0,502.0,502.0,502.0,502.0,497.0,535.0,502.0,500,500,500,9.0,21.0,13.0
0,497.2,520.0,501.6666666666667,497.0,494.0,502.0,497.0,497.0,497.0,497.0,497.0,497.0,497.0,497.0,497.0,497.0,497.0,497.0,497.0,497.0,497.0,497.0,512.0,512.0,512.0,512.0,527.0,527.0,527.0,527.0,527.0,527.0,527.0,527.0,527.0,527.0,527.0,527.0,527.0,527.0,527.0,527.0,494.0,494.0,494.0,494.0,502.0,502.0,502.0,502.0,502.0,502.0,502.0,502.0,502.0,502.0,502.0,502.0,502.0,502.0,502.0,502.0,507.0,507.0,507.0,507.0,512.0,527.0,507.0,500,500,500,24.0,33.0,10.0
0,510.6666666666667,503.53333333333336,506.6666666666667,512.0,494.0,507.0,512.0,512.0,512.0,512.0,512.0,512.0,512.0,512.0,512.0,512.0,512.0,512.0,512.0,525.0,525.0,525.0,525.0,525.0,525.0,525.0,494.0,494.0,494.0,494.0,494.0,494.0,494.0,494.0,494.0,494.0,494.0,494.0,494.0,505.0,505.0,505.0,505.0,505.0,505.0,505.0,507.0,507.0,507.0,507.0,507.0,507.0,507.0,507.0,507.0,507.0,507.0,507.0,507.0,512.0,512.0,512.0,512.0,512.0,512.0,512.0,525.0,505.0,512.0,500,500,500,28.0,33.0,10.0
0,525.2333333333333,502.6666666666667,513.8666666666667,525.0,495.0,512.0,525.0,525.0,525.0,525.0,525.0,525.0,525.0,525.0,525.0,525.0,525.0,525.0,525.0,526.0,526.0,526.0,526.0,526.0,526.0,526.0,505.0,505.0,505.0,505.0,505.0,505.0,505.0,505.0,505.0,505.0,505.0,505.0,505.0,495.0,495.0,495.0,495.0,495.0,495.0,495.0,512.0,512.0,512.0,512.0,512.0,512.0,512.0,512.0,512.0,512.0,512.0,512.0,512.0,520.0,520.0,520.0,520.0,520.0,520.0,520.0,526.0,505.0,520.0,500,500,500,1.0,10.0,8.0
0,520.8,493.23333333333335,515.6666666666666,513.0,487.0,507.0,526.0,526.0,519.0,519.0,519.0,519.0,519.0,519.0,519.0,519.0,519.0,519.0,513.0,513.0,513.0,513.0,513.0,513.0,513.0,513.0,495.0,495.0,494.0,494.0,494.0,494.0,494.0,494.0,494.0,494.0,494.0,487.0,487.0,487.0,487.0,487.0,487.0,487.0,487.0,487.0,520.0,520.0,515.0,515.0,515.0,515.0,515.0,515.0,515.0,515.0,515.0,507.0,507.0,507.0,507.0,507.0,507.0,507.0,507.0,507.0,526.0,495.0,520.0,500,500,500,13.0,8.0,13.0
0,510.43333333333334,498.0,508.8333333333333,506.0,487.0,507.0,513.0,513.0,513.0,513.0,513.0,513.0,513.0,513.0,513.0,506.0,506.0,506.0,506.0,506.0,506.0,506.0,506.0,506.0,506.0,506.0,487.0,487.0,487.0,487.0,487.0,487.0,487.0,487.0,487.0,517.0,517.0,517.0,517.0,517.0,517.0,517.0,517.0,517.0,517.0,517.0,507.0,507.0,507.0,507.0,507.0,507.0,507.0,507.0,507.0,512.0,512.0,512.0,512.0,512.0,512.0,512.0,512.0,512.0,512.0,512.0,513.0,517.0,512.0,500,500,500,7.0,30.0,5.0
0,507.6333333333333,524.0,510.6,506.0,517.0,507.0,506.0,506.0,506.0,506.0,506.0,506.0,506.0,506.0,506.0,506.0,506.0,506.0,506.0,513.0,513.0,513.0,513.0,513.0,513.0,513.0,517.0,517.0,517.0,517.0,517.0,517.0,527.0,527.0,527.0,527.0,527.0,527.0,527.0,537.0,537.0,537.0,537.0,537.0,537.0,537.0,512.0,512.0,512.0,512.0,512.0,512.0,511.0,511.0,511.0,511.0,511.0,511.0,511.0,507.0,507.0,507.0,507.0,507.0,507.0,507.0,513.0,537.0,512.0,500,500,500,7.0,20.0,5.0
0,512.0,528.5,506.5,511.0,520.0,506.0,513.0,513.0,513.0,513.0,513.0,511.0,511.0,511.0,511.0,511.0,511.0,511.0,511.0,511.0,511.0,511.0,511.0,511.0,511.0,511.0,537.0,537.0,537.0,537.0,537.0,520.0,520.0,520.0,520.0,520.0,520.0,520.0,520.0,520.0,520.0,520.0,520.0,520.0,520.0,520.0,507.0,507.0,507.0,507.0,507.0,506.0,506.0,506.0,506.0,506.0,506.0,506.0,506.0,506.0,506.0,506.0,506.0,506.0,506.0,506.0,513.0,537.0,507.0,500,500,500,2.0,17.0,1.0
0,517.0,532.2666666666667,506.06666666666666,511.0,520.0,504.0,511.0,511.0,511.0,511.0,519.0,519.0,519.0,519.0,519.0,519.0,519.0,519.0,519.0,519.0,536.0,536.0,536.0,536.0,536.0,536.0,520.0,520.0,520.0,520.0,544.0,544.0,544.0,544.0,544.0,544.0,544.0,544.0,544.0,544.0,552.0,552.0,552.0,552.0,552.0,552.0,506.0,506.0,506.0,506.0,507.0,507.0,507.0,507.0,507.0,507.0,507.0,507.0,507.0,507.0,504.0,504.0,504.0,504.0,504.0,504.0,536.0,552.0,507.0,500,500,500,25.0,32.0,3.0
0,534.2333333333333,549.0666666666667,504.76666666666665,535.0,520.0,504.0,536.0,536.0,536.0,536.0,536.0,536.0,536.0,536.0,536.0,536.0,536.0,536.0,536.0,536.0,536.0,536.0,535.0,535.0,535.0,535.0,552.0,552.0,552.0,552.0,552.0,552.0,552.0,552.0,552.0,552.0,552.0,552.0,552.0,552.0,552.0,552.0,520.0,520.0,520.0,520.0,504.0,504.0,504.0,504.0,504.0,504.0,504.0,504.0,504.0,504.0,504.0,504.0,504.0,504.0,504.0,504.0,511.0,511.0,511.0,511.0,536.0,552.0,511.0,500,500,500,17.0,32.0,7.0
0,532.6,521.3666666666667,513.1,524.0,503.0,511.0,535.0,535.0,535.0,535.0,535.0,535.0,535.0,535.0,535.0,535.0,535.0,535.0,535.0,524.0,524.0,524.0,524.0,524.0,524.0,524.0,520.0,520.0,520.0,520.0,520.0,520.0,520.0,520.0,520.0,520.0,520.0,520.0,520.0,503.0,503.0,503.0,503.0,503.0,503.0,503.0,511.0,511.0,511.0,511.0,511.0,511.0,511.0,511.0,511.0,511.0,511.0,511.0,511.0,525.0,525.0,525.0,525.0,525.0,525.0,525.0,535.0,520.0,525.0,500,500,500,12.0,49.0,21.0
0,519.6,495.6666666666667,526.4666666666667,512.0,483.0,525.0,524.0,524.0,524.0,524.0,524.0,524.0,524.0,524.0,524.0,512.0,512.0,512.0,512.0,512.0,512.0,512.0,512.0,512.0,512.0,512.0,503.0,503.0,503.0,503.0,503.0,503.0,503.0,503.0,503.0,483.0,483.0,483.0,483.0,483.0,483.0,483.0,483.0,483.0,483.0,483.0,525.0,525.0,525.0,525.0,525.0,525.0,525.0,525.0,525.0,529.0,529.0,529.0,529.0,529.0,529.0,529.0,529.0,529.0,529.0,529.0,524.0,503.0,529.0,500,500,500,12.0,20.0,4.0
0,490.5,498.0,529.0,481.0,498.0,525.0,497.0,497.0,497.0,497.0,497.0,481.0,481.0,481.0,481.0,481.0,481.0,481.0,481.0,481.0,481.0,481.0,481.0,481.0,481.0,481.0,498.0,498.0,498.0,498.0,498.0,501.0,501.0,501.0,501.0,501.0,501.0,501.0,501.0,501.0,501.0,501.0,501.0,501.0,501.0,501.0,534.0,534.0,534.0,534.0,534.0,525.0,525.0,525.0,525.0,525.0,525.0,525.0,525.0,525.0,525.0,525.0,525.0,525.0,525.0,525.0,497.0,501.0,534.0,500,500,500,31.0,18.0,9.0
0,468.0,547.9,514.4333333333333,455.0,539.0,513.0,475.0,475.0,475.0,475.0,475.0,475.0,455.0,455.0,455.0,455.0,455.0,455.0,455.0,455.0,455.0,477.0,477.0,477.0,477.0,477.0,539.0,539.0,539.0,539.0,539.0,539.0,564.0,564.0,564.0,564.0,564.0,564.0,564.0,564.0,564.0,554.0,554.0,554.0,554.0,554.0,513.0,513.0,513.0,513.0,513.0,513.0,514.0,514.0,514.0,514.0,514.0,514.0,514.0,514.0,514.0,523.0,523.0,523.0,523.0,523.0,477.0,564.0,523.0,500,500,500,26.0,63.0,12.0
0,472.1,556.6666666666666,520.2666666666667,477.0,554.0,513.0,477.0,477.0,477.0,477.0,477.0,477.0,477.0,477.0,477.0,477.0,477.0,477.0,477.0,477.0,477.0,477.0,477.0,477.0,477.0,506.0,554.0,554.0,554.0,554.0,554.0,554.0,554.0,554.0,554.0,554.0,554.0,554.0,554.0,554.0,554.0,554.0,554.0,554.0,554.0,554.0,523.0,523.0,523.0,523.0,523.0,523.0,523.0,523.0,523.0,523.0,523.0,523.0,523.0,523.0,523.0,523.0,523.0,523.0,523.0,513.0,506.0,554.0,523.0,500,500,500,51.0,10.0,10.0
0,490.76666666666665,552.8333333333334,517.2666666666667,477.0,519.0,481.0,477.0,477.0,477.0,477.0,477.0,477.0,506.0,506.0,506.0,506.0,506.0,506.0,506.0,506.0,506.0,506.0,506.0,506.0,506.0,513.0,554.0,554.0,554.0,554.0,554.0,554.0,554.0,554.0,554.0,554.0,554.0,554.0,554.0,554.0,554.0,554.0,554.0,554.0,554.0,519.0,523.0,523.0,523.0,523.0,523.0,523.0,513.0,513.0,513.0,513.0,513.0,513.0,513.0,513.0,513.0,513.0,513.0,513.0,513.0,481.0,513.0,554.0,523.0,500,500,500,36.0,35.0,42.0
0,510.8666666666667,523.0666666666667,486.06666666666666,513.0,481.0,453.0,513.0,513.0,513.0,513.0,513.0,513.0,513.0,513.0,513.0,513.0,513.0,513.0,513.0,514.0,514.0,514.0,514.0,514.0,514.0,514.0,519.0,519.0,519.0,519.0,519.0,519.0,519.0,519.0,519.0,519.0,519.0,519.0,519.0,481.0,481.0,481.0,481.0,481.0,481.0,481.0,481.0,481.0,481.0,481.0,481.0,481.0,481.0,481.0,481.0,481.0,481.0,481.0,481.0,453.0,453.0,453.0,453.0,453.0,453.0,453.0,514.0,519.0,481.0,500,500,500,8.0,73.0,60.0
0,514.2,483.3,456.8,514.0,481.0,453.0,514.0,514.0,514.0,514.0,514.0,514.0,514.0,514.0,514.0,514.0,514.0,514.0,514.0,514.0,514.0,514.0,516.0,516.0,516.0,516.0,481.0,481.0,481.0,481.0,481.0,481.0,481.0,481.0,481.0,481.0,481.0,481.0,481.0,481.0,481.0,481.0,504.0,504.0,504.0,504.0,453.0,453.0,453.0,453.0,453.0,453.0,453.0,453.0,453.0,453.0,453.0,453.0,453.0,453.0,453.0,453.0,491.0,491.0,491.0,491.0,516.0,504.0,491.0,500,500,500,2.0,23.0,38.0
0,514.7333333333333,494.1333333333333,474.8666666666667,511.0,481.0,453.0,514.0,514.0,514.0,514.0,516.0,516.0,516.0,516.0,516.0,516.0,516.0,516.0,516.0,516.0,516.0,516.0,516.0,516.0,511.0,511.0,481.0,481.0,481.0,481.0,504.0,504.0,504.0,504.0,504.0,504.0,504.0,504.0,504.0,504.0,504.0,504.0,504.0,504.0,517.0,517.0,453.0,453.0,453.0,453.0,491.0,491.0,491.0,491.0,491.0,491.0,491.0,491.0,491.0,491.0,491.0,491.0,491.0,491.0,515.0,515.0,516.0,517.0,515.0,500,500,500,5.0,36.0,62.0
0,510.1666666666667,511.93333333333334,516.9,506.0,499.0,515.0,511.0,511.0,511.0,511.0,511.0,511.0,511.0,511.0,511.0,511.0,511.0,511.0,511.0,506.0,506.0,506.0,506.0,506.0,506.0,506.0,517.0,517.0,517.0,517.0,517.0,517.0,517.0,517.0,517.0,517.0,517.0,517.0,517.0,499.0,499.0,499.0,499.0,499.0,499.0,499.0,515.0,515.0,515.0,515.0,515.0,515.0,515.0,515.0,515.0,515.0,515.0,515.0,515.0,530.0,530.0,530.0,530.0,530.0,530.0,530.0,511.0,517.0,530.0,500,500,500,10.0,18.0,39.0
0,508.06666666666666,504.2,526.2,506.0,499.0,524.0,506.0,506.0,506.0,506.0,506.0,506.0,506.0,506.0,506.0,506.0,506.0,506.0,506.0,506.0,506.0,514.0,514.0,514.0,514.0,514.0,499.0,499.0,499.0,499.0,499.0,499.0,499.0,499.0,499.0,499.0,499.0,499.0,499.0,499.0,499.0,511.0,511.0,511.0,511.0,511.0,530.0,530.0,530.0,530.0,530.0,530.0,530.0,530.0,530.0,530.0,530.0,530.0,530.0,530.0,530.0,524.0,524.0,524.0,524.0,524.0,514.0,511.0,530.0,500,500,500,8.0,18.0,15.0
0,514.1333333333333,517.4666666666667,518.8666666666667,514.0,511.0,513.0,514.0,514.0,514.0,514.0,514.0,514.0,514.0,514.0,514.0,514.0,514.0,514.0,514.0,514.0,516.0,516.0,516.0,516.0,516.0,516.0,511.0,511.0,511.0,511.0,519.0,519.0,519.0,519.0,519.0,519.0,519.0,519.0,519.0,519.0,560.0,560.0,560.0,560.0,560.0,560.0,524.0,524.0,524.0,524.0,513.0,513.0,513.0,513.0,513.0,513.0,513.0,513.0,513.0,513.0,513.0,513.0,513.0,513.0,513.0,513.0,516.0,560.0,524.0,500,500,500,2.0,49.0,11.0
0,520.3333333333334,548.3,517.3333333333334,516.0,533.0,513.0,516.0,516.0,516.0,516.0,516.0,516.0,526.0,526.0,526.0,526.0,526.0,526.0,526.0,526.0,526.0,526.0,526.0,526.0,526.0,526.0,560.0,560.0,560.0,560.0,560.0,560.0,533.0,533.0,533.0,533.0,533.0,533.0,533.0,533.0,533.0,533.0,533.0,533.0,533.0,533.0,513.0,513.0,513.0,513.0,513.0,513.0,523.0,523.0,523.0,523.0,523.0,523.0,523.0,523.0,523.0,523.0,523.0,523.0,523.0,523.0,526.0,560.0,523.0,500,500,500,10.0,27.0,10.0
0,530.7333333333333,515.6,521.5,531.0,503.0,517.0,533.0,533.0,533.0,533.0,533.0,531.0,531.0,531.0,531.0,531.0,531.0,531.0,531.0,531.0,531.0,531.0,531.0,531.0,531.0,531.0,521.0,521.0,521.0,521.0,521.0,503.0,503.0,503.0,503.0,503.0,503.0,503.0,503.0,503.0,503.0,503.0,503.0,503.0,503.0,503.0,526.0,526.0,526.0,526.0,526.0,517.0,517.0,517.0,517.0,517.0,517.0,517.0,517.0,517.0,517.0,517.0,517.0,517.0,517.0,517.0,533.0,521.0,526.0,500,500,500,7.0,30.0,9.0
0,525.4333333333333,496.76666666666665,514.1333333333333,512.0,479.0,511.0,531.0,531.0,524.0,524.0,524.0,524.0,524.0,524.0,524.0,524.0,524.0,524.0,524.0,512.0,512.0,512.0,512.0,512.0,512.0,512.0,503.0,503.0,496.0,496.0,496.0,496.0,496.0,496.0,496.0,496.0,496.0,496.0,496.0,479.0,479.0,479.0,479.0,479.0,479.0,479.0,517.0,517.0,511.0,511.0,511.0,511.0,511.0,511.0,511.0,511.0,511.0,511.0,515.0,515.0,515.0,515.0,515.0,515.0,515.0,515.0,531.0,503.0,517.0,500,500,500,19.0,24.0,6.0
0,508.06666666666666,494.8666666666667,513.5666666666667,505.0,494.0,509.0,507.0,507.0,507.0,507.0,507.0,507.0,507.0,507.0,507.0,507.0,505.0,505.0,505.0,505.0,505.0,505.0,505.0,505.0,505.0,505.0,510.0,510.0,510.0,510.0,510.0,510.0,510.0,510.0,510.0,510.0,494.0,494.0,494.0,494.0,494.0,494.0,494.0,494.0,494.0,494.0,516.0,516.0,516.0,516.0,516.0,516.0,516.0,516.0,516.0,516.0,509.0,509.0,509.0,509.0,509.0,509.0,509.0,509.0,509.0,509.0,507.0,510.0,516.0,500,500,500,7.0,31.0,7.0
0,506.2,494.93333333333334,504.5,505.0,486.0,500.0,505.0,505.0,505.0,505.0,505.0,505.0,505.0,505.0,505.0,505.0,505.0,505.0,505.0,505.0,505.0,505.0,514.0,514.0,514.0,514.0,494.0,494.0,494.0,494.0,494.0,486.0,486.0,486.0,486.0,486.0,486.0,486.0,486.0,486.0,486.0,486.0,523.0,523.0,523.0,523.0,509.0,509.0,509.0,509.0,509.0,500.0,500.0,500.0,500.0,500.0,500.0,500.0,500.0,500.0,500.0,500.0,500.0,500.0,500.0,500.0,514.0,523.0,509.0,500,500,500,9.0,37.0,9.0
0,513.4,518.1333333333333,501.73333333333335,514.0,523.0,500.0,514.0,514.0,514.0,514.0,514.0,514.0,514.0,514.0,514.0,514.0,514.0,514.0,514.0,514.0,514.0,514.0,523.0,523.0,523.0,523.0,523.0,523.0,523.0,523.0,523.0,523.0,523.0,523.0,523.0,523.0,523.0,523.0,523.0,523.0,523.0,523.0,542.0,542.0,542.0,542.0,500.0,500.0,500.0,500.0,500.0,500.0,500.0,500.0,500.0,500.0,500.0,500.0,500.0,500.0,500.0,500.0,513.0,513.0,513.0,513.0,523.0,542.0,513.0,500,500,500,18.0,56.0,13.0
0,521.6333333333333,540.3333333333334,511.46666666666664,521.0,542.0,512.0,523.0,523.0,523.0,523.0,523.0,523.0,523.0,523.0,523.0,523.0,523.0,523.0,523.0,521.0,521.0,521.0,521.0,521.0,521.0,521.0,542.0,542.0,542.0,542.0,542.0,542.0,542.0,542.0,542.0,542.0,542.0,542.0,542.0,543.0,543.0,543.0,543.0,543.0,543.0,543.0,513.0,513.0,513.0,513.0,513.0,513.0,513.0,513.0,513.0,513.0,513.0,513.0,513.0,512.0,512.0,512.0,512.0,512.0,512.0,512.0,523.0,543.0,513.0,500,500,500,9.0,20.0,13.0
