,unixtime,emg0,emg1,emg0_ampl,emg1_ampl,emg0_med,emg1_med
0,0.0,0.0,0.0,0.0,0.0,0.0,0.0
1,1555413196.4115133,501.0,526.0,501.0,526.0,25.05,26.3
2,1555413196.4782555,499.0,541.0,501.0,541.0,50.0,53.35
3,1555413196.5427341,499.0,529.0,501.0,541.0,74.95,79.8
4,1555413196.6074662,502.0,526.0,502.0,541.0,100.05,106.1
5,1555413196.6716907,512.0,522.0,512.0,541.0,125.65,132.2
6,1555413196.7326794,514.0,495.0,514.0,541.0,151.35,156.95
7,1555413196.7919881,510.0,501.0,514.0,541.0,176.85,182.0
8,1555413196.854517,520.0,493.0,520.0,541.0,202.85,206.65
9,1555413196.9197056,519.0,497.0,520.0,541.0,228.8,231.5
10,1555413196.9883795,492.0,482.0,520.0,541.0,253.4,255.6
11,1555413197.0511844,491.0,486.0,520.0,541.0,277.95,279.9
12,1555413197.1169388,501.0,518.0,520.0,541.0,303.0,305.8
13,1555413197.1806674,499.0,529.0,520.0,541.0,327.95,332.25
14,1555413197.244791,501.0,502.0,520.0,541.0,353.0,357.35
15,1555413197.3111188,506.0,506.0,520.0,541.0,378.3,382.65
16,1555413197.378654,509.0,508.0,520.0,541.0,403.75,408.05
17,1555413197.4462879,517.0,497.0,520.0,541.0,429.6,432.9
18,1555413197.5129185,512.0,496.0,520.0,541.0,455.2,457.7
19,1555413197.5804992,518.0,512.0,520.0,541.0,481.1,483.3
20,1555413197.6425755,506.0,506.0,29.0,59.0,506.4,508.6
21,1555413197.704536,509.0,532.0,29.0,59.0,506.8,508.9
22,1555413197.77219,501.0,532.0,29.0,50.0,506.9,508.45
23,1555413197.834952,504.0,517.0,29.0,50.0,507.15,507.85
24,1555413197.9042845,507.0,502.0,29.0,50.0,507.4,506.65
25,1555413197.9669797,508.0,499.0,29.0,50.0,507.2,505.5
26,1555413198.042055,513.0,489.0,29.0,50.0,507.15,505.2
27,1555413198.105704,510.0,494.0,29.0,50.0,507.15,504.85
28,1555413198.1680272,514.0,510.0,28.0,50.0,506.85,505.7
29,1555413198.2362683,515.0,520.0,27.0,50.0,506.65,506.85
30,1555413198.319196,512.0,533.0,27.0,47.0,507.65,509.4
31,1555413198.3824968,512.0,540.0,19.0,51.0,508.7,512.1
32,1555413198.4514363,509.0,532.0,19.0,51.0,509.1,512.8
33,1555413198.5180004,505.0,495.0,17.0,51.0,509.4,511.1
34,1555413198.5836573,504.0,487.0,17.0,53.0,509.55,510.35
35,1555413198.6553693,510.0,495.0,17.0,53.0,509.75,509.8
36,1555413198.729055,512.0,481.0,17.0,59.0,509.9,508.45
37,1555413198.7958674,509.0,505.0,17.0,59.0,509.5,508.85
38,1555413198.8654957,498.0,520.0,20.0,59.0,508.8,510.05
39,1555413198.930545,501.0,537.0,17.0,59.0,507.95,511.3
40,1555413199.0002468,501.0,540.0,17.0,59.0,507.7,513.0
41,1555413199.0684373,508.0,520.0,17.0,59.0,507.65,512.4
42,1555413199.1329942,513.0,506.0,17.0,59.0,508.25,511.1
43,1555413199.2008066,514.0,505.0,17.0,59.0,508.75,510.5
44,1555413199.2695115,517.0,510.0,19.0,59.0,509.25,510.9
45,1555413199.3386128,510.0,500.0,19.0,59.0,509.35,510.95
46,1555413199.4127927,518.0,482.0,20.0,59.0,509.6,510.6
47,1555413199.4784727,529.0,497.0,31.0,59.0,510.55,510.75
48,1555413199.5411718,514.0,475.0,31.0,65.0,510.55,509.0
49,1555413199.6119633,514.0,475.0,31.0,65.0,510.5,506.75
50,1555413199.6886609,515.0,527.0,31.0,65.0,510.65,506.45
51,1555413199.7672136,500.0,485.0,31.0,65.0,510.05,503.7
52,1555413199.8372226,499.0,479.0,31.0,65.0,509.55,501.05
53,1555413199.9020467,510.0,502.0,31.0,65.0,509.8,501.4
54,1555413199.976426,495.0,497.0,34.0,65.0,509.35,501.9
55,1555413200.0449896,508.0,537.0,34.0,65.0,509.25,504.0
56,1555413200.108421,514.0,491.0,34.0,65.0,509.35,504.5
57,1555413200.1791925,510.0,518.0,34.0,65.0,509.4,505.15
58,1555413200.2507443,505.0,521.0,34.0,65.0,509.75,505.2
59,1555413200.3160622,492.0,488.0,37.0,65.0,509.3,502.75
60,1555413200.3875523,487.0,465.0,42.0,72.0,508.6,499.0
61,1555413200.4629588,501.0,484.0,42.0,72.0,508.25,497.2
62,1555413200.5427463,493.0,511.0,42.0,72.0,507.25,497.45
63,1555413200.6279485,505.0,522.0,42.0,72.0,506.8,498.3
64,1555413200.7125516,508.0,529.0,42.0,72.0,506.35,499.25
65,1555413200.7913232,502.0,499.0,42.0,72.0,505.95,499.2
66,1555413200.8727455,522.0,508.0,42.0,72.0,506.15,500.5
67,1555413200.943268,515.0,510.0,35.0,72.0,505.45,501.15
68,1555413201.0114086,512.0,513.0,35.0,72.0,505.35,503.05
69,1555413201.0808039,510.0,520.0,35.0,72.0,505.15,505.3
70,1555413201.1618779,510.0,517.0,35.0,72.0,504.9,504.8
71,1555413201.2493334,519.0,481.0,35.0,72.0,505.85,504.6
72,1555413201.3285954,521.0,497.0,35.0,72.0,506.95,505.5
73,1555413201.4057202,562.0,577.0,75.0,112.0,509.55,509.25
74,1555413201.4756145,528.0,517.0,75.0,112.0,511.2,510.25
75,1555413201.5625865,519.0,512.0,75.0,112.0,511.75,509.0
76,1555413201.6503677,512.0,532.0,75.0,112.0,511.65,511.05
77,1555413201.7293308,499.0,529.0,75.0,112.0,511.1,511.6
78,1555413201.8009903,501.0,502.0,75.0,112.0,510.9,510.65
79,1555413201.8712173,480.0,504.0,82.0,112.0,510.3,511.45
80,1555413201.9432945,479.0,513.0,83.0,96.0,509.9,513.85
81,1555413202.0172365,497.0,500.0,83.0,96.0,509.7,514.65
82,1555413202.095253,499.0,518.0,83.0,96.0,510.0,515.0
83,1555413202.1735654,500.0,464.0,83.0,113.0,509.75,512.1
84,1555413202.248778,499.0,466.0,83.0,113.0,509.3,508.95
85,1555413202.321934,500.0,477.0,83.0,113.0,509.2,507.85
86,1555413202.4095583,497.0,507.0,83.0,113.0,507.95,507.8
87,1555413202.4853528,492.0,496.0,83.0,113.0,506.8,507.1
88,1555413202.5608647,491.0,568.0,83.0,113.0,505.75,509.85
89,1555413202.6394339,495.0,516.0,83.0,113.0,505.0,509.65
90,1555413202.7173815,503.0,497.0,83.0,113.0,504.65,508.65
91,1555413202.795307,511.0,469.0,83.0,113.0,504.25,508.05
92,1555413202.8766994,530.0,515.0,83.0,113.0,504.7,508.95
93,1555413202.9519436,533.0,520.0,54.0,104.0,503.25,506.1
94,1555413203.0278811,539.0,503.0,60.0,104.0,503.8,505.4
95,1555413203.1044986,541.0,513.0,62.0,104.0,504.9,505.45
96,1555413203.1920543,532.0,503.0,62.0,104.0,505.9,504.0
97,1555413203.2619646,527.0,504.0,62.0,104.0,507.3,502.75
98,1555413203.3483503,511.0,522.0,62.0,104.0,507.8,503.75
99,1555413203.4281952,530.0,512.0,62.0,104.0,510.3,504.15
100,1555413203.4972212,531.0,500.0,50.0,104.0,512.9,503.5
101,1555413203.604226,521.0,478.0,50.0,104.0,514.1,502.4
102,1555413203.688299,528.0,532.0,50.0,104.0,515.55,503.1
103,1555413203.7744784,534.0,542.0,50.0,102.0,517.25,507.0
104,1555413203.8433738,514.0,524.0,50.0,99.0,518.0,509.9
105,1555413203.9215128,512.0,528.0,50.0,99.0,518.6,512.45
106,1555413204.0059032,502.0,498.0,50.0,99.0,518.85,512.0
107,1555413204.0912457,498.0,487.0,50.0,99.0,519.15,511.55
108,1555413204.1645844,503.0,525.0,46.0,73.0,519.75,509.4
109,1555413204.2330508,504.0,495.0,43.0,73.0,520.2,508.35
110,1555413204.3110495,504.0,496.0,43.0,73.0,520.25,508.3
111,1555413204.390675,504.0,517.0,43.0,64.0,519.9,510.7
112,1555413204.473167,489.0,500.0,52.0,64.0,517.85,509.95
113,1555413204.5492475,501.0,502.0,52.0,64.0,516.25,509.05
114,1555413204.624702,496.0,496.0,52.0,64.0,514.1,508.7
115,1555413204.704277,486.0,497.0,48.0,64.0,511.35,507.9
116,1555413204.782411,487.0,522.0,48.0,64.0,509.1,508.85
117,1555413204.8633494,492.0,523.0,48.0,64.0,507.35,509.8
118,1555413204.9407358,497.0,495.0,48.0,64.0,506.65,508.45
119,1555413205.0187936,508.0,490.0,48.0,64.0,505.55,507.35
120,1555413205.1067715,515.0,523.0,48.0,64.0,504.75,508.5
121,1555413205.1811533,508.0,504.0,48.0,55.0,504.1,509.8
122,1555413205.2579908,500.0,521.0,48.0,55.0,502.7,509.25
123,1555413205.3307045,507.0,515.0,29.0,41.0,501.35,507.9
124,1555413205.412977,515.0,516.0,29.0,41.0,501.4,507.5
125,1555413205.495845,522.0,502.0,36.0,38.0,501.9,506.2
126,1555413205.5694013,530.0,525.0,44.0,38.0,503.3,507.55
127,1555413205.6420121,523.0,505.0,44.0,35.0,504.55,508.45
128,1555413205.7156188,529.0,515.0,44.0,35.0,505.85,507.95
129,1555413205.783337,558.0,505.0,72.0,35.0,508.55,508.45
130,1555413205.8625476,542.0,500.0,72.0,35.0,510.45,508.65
131,1555413205.9462874,535.0,493.0,72.0,35.0,512.0,507.45
132,1555413206.019771,528.0,500.0,72.0,35.0,513.95,507.45
133,1555413206.0896058,514.0,514.0,72.0,35.0,514.6,508.05
134,1555413206.1569533,493.0,513.0,72.0,35.0,514.45,508.9
135,1555413206.224698,502.0,528.0,71.0,38.0,515.25,510.45
136,1555413206.2978206,502.0,521.0,66.0,38.0,516.0,510.4
137,1555413206.3733025,497.0,511.0,65.0,38.0,516.25,509.8
138,1555413206.4457676,505.0,498.0,65.0,38.0,516.65,509.95
139,1555413206.5201905,491.0,468.0,67.0,60.0,515.8,508.85
140,1555413206.5891564,484.0,489.0,74.0,60.0,514.25,507.15
141,1555413206.6561675,504.0,507.0,74.0,60.0,514.05,507.3
142,1555413206.7252684,506.0,519.0,74.0,60.0,514.35,507.2
143,1555413206.8099499,505.0,494.0,74.0,60.0,514.25,506.15
144,1555413206.8811722,493.0,480.0,74.0,60.0,513.15,504.35
145,1555413206.9491882,489.0,491.0,74.0,60.0,511.5,503.8
146,1555413207.0231888,490.0,514.0,74.0,60.0,509.5,503.25
147,1555413207.0955288,494.0,515.0,74.0,60.0,508.05,503.75
148,1555413207.1661325,511.0,488.0,74.0,60.0,507.15,502.4
149,1555413207.239257,533.0,490.0,58.0,60.0,505.9,501.65
150,1555413207.3065562,526.0,506.0,51.0,60.0,505.1,501.95
151,1555413207.3765013,521.0,528.0,49.0,60.0,504.4,503.7
152,1555413207.4498363,506.0,512.0,49.0,60.0,503.3,504.3
153,1555413207.5516806,506.0,512.0,49.0,60.0,502.9,504.2
154,1555413207.624784,504.0,500.0,49.0,60.0,503.45,503.55
155,1555413207.710522,505.0,517.0,49.0,60.0,503.6,503.0
156,1555413207.782293,501.0,513.0,49.0,60.0,503.55,502.6
157,1555413207.8558815,495.0,489.0,49.0,60.0,503.45,501.5
158,1555413207.9259946,504.0,509.0,49.0,60.0,503.4,502.05
159,1555413208.0112994,506.0,483.0,49.0,48.0,504.15,502.8
160,1555413208.0903916,497.0,486.0,44.0,48.0,504.8,502.65
161,1555413208.1651845,486.0,512.0,47.0,48.0,503.9,502.9
162,1555413208.2372277,487.0,515.0,47.0,48.0,502.95,502.7
163,1555413208.3109207,490.0,524.0,47.0,48.0,502.2,504.2
164,1555413208.3914578,496.0,545.0,47.0,62.0,502.35,507.45
165,1555413208.4711246,494.0,512.0,47.0,62.0,502.6,508.5
166,1555413208.5490396,523.0,496.0,47.0,62.0,504.25,507.6
167,1555413208.6236076,527.0,496.0,47.0,62.0,505.9,506.65
168,1555413208.6992064,520.0,498.0,47.0,62.0,506.35,507.15
169,1555413208.773075,514.0,502.0,41.0,62.0,505.4,507.75
170,1555413208.8463323,519.0,488.0,41.0,62.0,505.05,506.85
171,1555413208.9127994,504.0,481.0,41.0,64.0,504.2,504.5
172,1555413209.0015051,509.0,528.0,41.0,64.0,504.35,505.3
173,1555413209.0730104,512.0,537.0,41.0,64.0,504.65,506.55
174,1555413209.1480029,515.0,534.0,41.0,64.0,505.2,508.25
175,1555413209.2174592,534.0,517.0,48.0,64.0,506.65,508.25
176,1555413209.2901888,542.0,499.0,56.0,64.0,508.7,507.55
177,1555413209.3578725,538.0,484.0,56.0,64.0,510.85,507.3
178,1555413209.4435422,530.0,486.0,56.0,64.0,512.15,506.15
179,1555413209.5160286,525.0,486.0,56.0,64.0,513.1,506.3
180,1555413209.5865288,526.0,505.0,56.0,64.0,514.55,507.25
181,1555413209.6585763,517.0,483.0,55.0,64.0,516.1,505.8
182,1555413209.7332323,511.0,509.0,52.0,64.0,517.3,505.5
183,1555413209.8141556,506.0,499.0,48.0,64.0,518.1,504.25
184,1555413209.8876882,508.0,498.0,48.0,56.0,518.7,501.9
185,1555413209.958093,504.0,515.0,38.0,56.0,519.2,502.05
186,1555413210.0365674,513.0,555.0,38.0,74.0,518.7,505.0
187,1555413210.1126776,485.0,455.0,57.0,100.0,516.6,502.95
188,1555413210.1801646,482.0,504.0,60.0,100.0,514.7,503.25
189,1555413210.2488394,494.0,498.0,60.0,100.0,513.7,503.05
190,1555413210.3183842,498.0,517.0,60.0,100.0,512.65,504.5
191,1555413210.3997316,488.0,548.0,60.0,100.0,511.85,507.85
192,1555413210.4805238,513.0,514.0,60.0,100.0,512.05,507.15
193,1555413210.5577762,504.0,498.0,60.0,100.0,511.65,505.2
194,1555413210.6304584,516.0,471.0,60.0,100.0,511.7,502.05
195,1555413210.7017844,508.0,484.0,60.0,100.0,510.4,500.4
196,1555413210.7708404,511.0,501.0,56.0,100.0,508.85,500.5
197,1555413210.8395903,522.0,497.0,48.0,100.0,508.05,501.15
198,1555413210.9094257,528.0,515.0,46.0,100.0,507.95,502.6
199,1555413210.986176,528.0,515.0,46.0,100.0,508.1,504.05
200,1555413211.0536737,517.0,527.0,46.0,100.0,507.65,505.15
201,1555413211.1264358,524.0,519.0,46.0,100.0,508.0,506.95
202,1555413211.2024949,523.0,512.0,46.0,100.0,508.6,507.1
203,1555413211.2796855,518.0,506.0,46.0,100.0,509.2,507.45
204,1555413211.361128,515.0,500.0,46.0,100.0,509.55,507.55
205,1555413211.4397812,514.0,476.0,46.0,100.0,510.05,505.6
206,1555413211.5196931,524.0,496.0,46.0,93.0,510.6,502.65
207,1555413211.5885513,519.0,502.0,46.0,77.0,512.3,505.0
208,1555413211.6732237,515.0,543.0,40.0,77.0,513.95,506.95
209,1555413211.7390723,506.0,513.0,40.0,77.0,514.55,507.7
210,1555413211.8083096,518.0,519.0,40.0,77.0,515.55,507.8
211,1555413211.8839962,510.0,508.0,24.0,72.0,516.65,505.8
212,1555413211.9752016,494.0,493.0,34.0,72.0,515.7,504.75
213,1555413212.054995,501.0,491.0,34.0,72.0,515.55,504.4
214,1555413212.1313171,499.0,500.0,34.0,67.0,514.7,505.85
215,1555413212.199327,501.0,487.0,34.0,67.0,514.35,506.0
216,1555413212.275536,479.0,487.0,49.0,67.0,512.75,505.3
217,1555413212.3545516,479.0,476.0,49.0,67.0,510.6,504.25
218,1555413212.4352767,480.0,503.0,49.0,67.0,508.2,503.65
219,1555413212.5130718,496.0,513.0,45.0,67.0,506.6,503.55
220,1555413212.589136,491.0,496.0,45.0,67.0,505.3,502.0
221,1555413212.6768618,499.0,507.0,45.0,67.0,504.05,501.4
222,1555413212.7487464,508.0,537.0,45.0,67.0,503.3,502.65
223,1555413212.8179295,513.0,513.0,45.0,67.0,503.05,503.0
224,1555413212.908131,524.0,534.0,45.0,67.0,503.5,504.7
225,1555413212.978987,524.0,534.0,45.0,67.0,504.0,507.6
226,1555413213.0646815,507.0,508.0,45.0,67.0,503.15,508.2
227,1555413213.1419556,507.0,508.0,45.0,67.0,502.55,508.5
228,1555413213.2267773,511.0,527.0,45.0,61.0,502.35,507.7
229,1555413213.3059056,512.0,511.0,45.0,61.0,502.65,507.6
230,1555413213.382733,506.0,497.0,45.0,61.0,502.05,506.5
231,1555413213.4811928,510.0,493.0,45.0,61.0,502.05,505.75
232,1555413213.5494304,507.0,508.0,45.0,61.0,502.7,506.5
233,1555413213.618606,503.0,490.0,45.0,61.0,502.8,506.45
234,1555413213.6942353,507.0,508.0,45.0,61.0,503.2,506.85
235,1555413213.761261,509.0,500.0,45.0,61.0,503.6,507.5
236,1555413213.8282638,517.0,492.0,45.0,61.0,505.5,507.75
237,1555413213.8943498,513.0,507.0,44.0,47.0,507.2,509.3
238,1555413213.9604623,510.0,492.0,33.0,47.0,508.7,508.75
239,1555413214.0288334,511.0,494.0,33.0,47.0,509.45,507.8
240,1555413214.0994713,505.0,485.0,25.0,52.0,510.15,507.25
241,1555413214.1881433,516.0,506.0,21.0,52.0,511.0,507.2
242,1555413214.2549222,506.0,509.0,21.0,49.0,510.9,505.8
243,1555413214.3287852,503.0,491.0,21.0,49.0,510.4,504.7
244,1555413214.4105134,512.0,499.0,21.0,49.0,509.8,502.95
245,1555413214.4792418,510.0,509.0,14.0,42.0,509.1,501.7
246,1555413214.5479825,515.0,516.0,14.0,42.0,509.5,502.1
247,1555413214.6260176,513.0,525.0,14.0,42.0,509.8,502.95
248,1555413214.7002966,516.0,494.0,14.0,40.0,510.05,501.3
249,1555413214.776706,515.0,493.0,14.0,40.0,510.2,500.4
250,1555413214.842756,511.0,481.0,14.0,44.0,510.45,499.6
251,1555413214.9208114,503.0,499.0,14.0,44.0,510.1,499.9
252,1555413214.9897656,508.0,505.0,14.0,44.0,510.15,499.75
253,1555413215.0591931,510.0,557.0,14.0,76.0,510.5,503.1
254,1555413215.1475651,508.0,506.0,14.0,76.0,510.55,503.0
255,1555413215.2250037,506.0,515.0,14.0,76.0,510.4,503.75
256,1555413215.3045578,516.0,526.0,13.0,76.0,510.35,505.45
257,1555413215.3950994,499.0,506.0,17.0,76.0,509.65,505.4
258,1555413215.4757774,510.0,504.0,17.0,76.0,509.65,506.0
259,1555413215.5499663,511.0,504.0,17.0,76.0,509.65,506.5
260,1555413215.6237597,509.0,503.0,17.0,76.0,509.85,507.4
261,1555413215.69693,510.0,508.0,17.0,76.0,509.55,507.5
262,1555413215.7725925,508.0,509.0,17.0,76.0,509.65,507.5
263,1555413215.8516746,501.0,509.0,17.0,76.0,509.55,508.4
264,1555413215.9208837,510.0,537.0,17.0,76.0,509.45,510.3
265,1555413215.9898376,515.0,512.0,17.0,76.0,509.7,510.45
266,1555413216.0586588,516.0,506.0,17.0,76.0,509.75,509.95
267,1555413216.1368372,508.0,504.0,17.0,76.0,509.5,508.9
268,1555413216.2138872,508.0,533.0,17.0,76.0,509.1,510.85
269,1555413216.2920468,504.0,490.0,17.0,76.0,508.55,510.7
270,1555413216.3689816,513.0,506.0,17.0,67.0,508.65,511.95
271,1555413216.4465117,505.0,503.0,17.0,67.0,508.75,512.15
272,1555413216.5374408,511.0,518.0,17.0,67.0,508.9,512.8
273,1555413216.6202846,510.0,539.0,17.0,49.0,508.9,511.9
274,1555413216.691326,508.0,504.0,17.0,49.0,508.9,511.8
275,1555413216.7711298,510.0,515.0,17.0,49.0,509.1,511.8
276,1555413216.8503597,511.0,499.0,17.0,49.0,508.85,510.45
277,1555413216.9246507,508.0,507.0,15.0,49.0,509.3,510.5
278,1555413217.0006614,511.0,502.0,15.0,49.0,509.35,510.4
279,1555413217.0870938,514.0,504.0,15.0,49.0,509.5,510.4
280,1555413217.1636393,509.0,515.0,15.0,49.0,509.5,511.0
281,1555413217.2452202,511.0,511.0,15.0,49.0,509.55,511.15
282,1555413217.3207052,510.0,495.0,15.0,49.0,509.65,510.45
283,1555413217.4057376,516.0,509.0,12.0,49.0,510.4,510.45
284,1555413217.4828732,506.0,498.0,12.0,49.0,510.2,508.5
285,1555413217.5563147,506.0,488.0,12.0,51.0,509.75,507.3
286,1555413217.6310635,510.0,523.0,12.0,51.0,509.45,508.15
287,1555413217.7180822,506.0,513.0,12.0,51.0,509.35,508.6
288,1555413217.7871652,510.0,515.0,12.0,51.0,509.45,507.7
289,1555413217.8551397,507.0,519.0,11.0,51.0,509.6,509.15
290,1555413217.9346595,500.0,518.0,16.0,51.0,508.95,509.75
291,1555413218.0101008,507.0,520.0,16.0,51.0,509.05,510.6
292,1555413218.0824223,515.0,500.0,16.0,51.0,509.25,509.7
293,1555413218.1691976,508.0,496.0,16.0,35.0,509.15,507.55
294,1555413218.2413187,503.0,520.0,16.0,35.0,508.9,508.35
295,1555413218.3163931,507.0,499.0,16.0,35.0,508.75,507.55
296,1555413218.394469,507.0,514.0,16.0,35.0,508.55,508.3
297,1555413218.467948,505.0,505.0,16.0,35.0,508.4,508.2
298,1555413218.5538661,509.0,515.0,16.0,35.0,508.3,508.85
299,1555413218.6219695,508.0,509.0,16.0,35.0,508.0,509.1
300,1555413218.6955397,503.0,508.0,16.0,35.0,507.7,508.75
301,1555413218.7643585,513.0,486.0,16.0,37.0,507.8,507.5
302,1555413218.8417308,512.0,486.0,16.0,37.0,507.9,507.05
303,1555413218.9232204,511.0,500.0,15.0,37.0,507.65,506.6
304,1555413218.9969354,509.0,502.0,15.0,37.0,507.8,506.8
305,1555413219.0788279,510.0,492.0,15.0,37.0,508.0,507.0
306,1555413219.1673372,503.0,503.0,15.0,34.0,507.65,506.0
307,1555413219.2414956,515.0,473.0,15.0,47.0,508.1,504.0
308,1555413219.3156629,508.0,513.0,15.0,47.0,508.0,503.9
309,1555413219.384879,502.0,522.0,15.0,49.0,507.75,504.05
310,1555413219.483415,497.0,541.0,18.0,68.0,507.6,505.2
311,1555413219.554378,510.0,510.0,18.0,68.0,507.75,504.7
312,1555413219.6264007,512.0,500.0,18.0,68.0,507.6,504.7
313,1555413219.7039804,509.0,505.0,18.0,68.0,507.65,505.15
314,1555413219.780247,512.0,495.0,18.0,68.0,508.1,503.9
315,1555413219.8543591,512.0,506.0,18.0,68.0,508.35,504.25
316,1555413219.9213889,507.0,515.0,18.0,68.0,508.35,504.3
317,1555413219.9913845,503.0,511.0,18.0,68.0,508.25,504.6
318,1555413220.0656507,507.0,523.0,18.0,68.0,508.15,505.0
319,1555413220.1511674,515.0,502.0,18.0,68.0,508.5,504.65
320,1555413220.22991,512.0,508.0,18.0,68.0,508.95,504.65
321,1555413220.3087564,511.0,514.0,18.0,68.0,508.85,506.05
322,1555413220.3951159,514.0,497.0,18.0,68.0,508.95,506.6
323,1555413220.465043,509.0,496.0,18.0,68.0,508.85,506.4
324,1555413220.5316806,509.0,512.0,18.0,68.0,508.85,506.9
325,1555413220.6017976,508.0,505.0,18.0,68.0,508.75,507.55
326,1555413220.675621,503.0,521.0,18.0,68.0,508.75,508.45
327,1555413220.7497241,510.0,521.0,18.0,46.0,508.5,510.85
328,1555413220.824503,502.0,521.0,18.0,46.0,508.2,511.25
329,1555413220.9009383,501.0,518.0,18.0,46.0,508.15,511.05
330,1555413220.973171,511.0,508.0,14.0,28.0,508.85,509.4
331,1555413221.0541897,511.0,496.0,14.0,28.0,508.9,508.7
332,1555413221.146762,508.0,502.0,14.0,28.0,508.7,508.8
333,1555413221.2146225,514.0,509.0,14.0,28.0,508.95,509.0
334,1555413221.285175,511.0,512.0,14.0,27.0,508.9,509.85
335,1555413221.356537,507.0,501.0,14.0,27.0,508.65,509.6
336,1555413221.4255726,508.0,501.0,14.0,27.0,508.7,508.9
337,1555413221.4935067,511.0,506.0,14.0,27.0,509.1,508.65
338,1555413221.5655537,505.0,518.0,14.0,25.0,509.0,508.4
339,1555413221.6471953,507.0,520.0,13.0,25.0,508.6,509.3
340,1555413221.723827,506.0,515.0,13.0,25.0,508.3,509.65
341,1555413221.794534,510.0,500.0,13.0,25.0,508.25,508.95
342,1555413221.8713393,511.0,493.0,13.0,28.0,508.1,508.75
343,1555413221.9443374,516.0,497.0,15.0,28.0,508.45,508.8
344,1555413222.0191157,518.0,499.0,17.0,28.0,508.9,508.15
345,1555413222.0930078,511.0,498.0,17.0,28.0,509.05,507.8
346,1555413222.163746,508.0,504.0,17.0,28.0,509.3,506.95
347,1555413222.24582,504.0,488.0,17.0,33.0,509.0,505.3
348,1555413222.329895,505.0,512.0,17.0,32.0,509.15,504.85
349,1555413222.405414,506.0,522.0,14.0,34.0,509.4,505.05
350,1555413222.4826052,509.0,527.0,14.0,39.0,509.3,506.0
351,1555413222.5630584,516.0,492.0,14.0,39.0,509.55,505.8
352,1555413222.6342983,514.0,509.0,14.0,39.0,509.85,506.15
353,1555413222.7084055,515.0,504.0,14.0,39.0,509.9,505.9
354,1555413222.7771177,511.0,497.0,14.0,39.0,509.9,505.15
355,1555413222.8468215,510.0,505.0,14.0,39.0,510.05,505.35
356,1555413222.9203773,502.0,503.0,16.0,39.0,509.75,505.45
357,1555413222.9905818,507.0,500.0,16.0,39.0,509.55,505.15
358,1555413223.0643504,513.0,506.0,16.0,39.0,509.95,504.55
359,1555413223.1372907,509.0,521.0,16.0,39.0,510.05,504.6
360,1555413223.2109296,507.0,500.0,16.0,39.0,510.1,503.85
361,1555413223.2975476,512.0,503.0,16.0,39.0,510.2,504.0
362,1555413223.376812,512.0,493.0,16.0,39.0,510.25,504.0
363,1555413223.4536505,508.0,505.0,16.0,39.0,509.85,504.4
364,1555413223.5250757,511.0,529.0,14.0,41.0,509.5,505.9
365,1555413223.5979636,513.0,503.0,14.0,41.0,509.6,506.15
366,1555413223.6729403,511.0,537.0,14.0,49.0,509.75,507.8
367,1555413223.746605,512.0,518.0,14.0,45.0,510.15,509.3
368,1555413223.8187985,509.0,524.0,14.0,45.0,510.35,509.9
369,1555413223.8862717,507.0,521.0,14.0,45.0,510.4,509.85
370,1555413223.9594967,509.0,521.0,14.0,45.0,510.4,509.55
371,1555413224.0398605,513.0,511.0,13.0,44.0,510.25,510.5
372,1555413224.1254938,521.0,476.0,19.0,61.0,510.6,508.85
373,1555413224.2030723,510.0,503.0,19.0,61.0,510.35,508.8
374,1555413224.271282,509.0,510.0,19.0,61.0,510.25,509.45
375,1555413224.3461215,513.0,522.0,19.0,61.0,510.4,510.3
376,1555413224.418569,502.0,521.0,19.0,61.0,510.4,511.2
377,1555413224.489725,511.0,516.0,19.0,61.0,510.6,512.0
378,1555413224.5558171,506.0,526.0,19.0,61.0,510.25,513.0
379,1555413224.6238058,512.0,516.0,19.0,61.0,510.4,512.75
380,1555413224.6945288,508.0,519.0,19.0,61.0,510.45,513.7
381,1555413224.7726426,512.0,516.0,19.0,61.0,510.45,514.35
382,1555413224.845523,516.0,500.0,19.0,61.0,510.65,514.7
383,1555413224.9160922,514.0,529.0,19.0,61.0,510.95,515.9
384,1555413224.985374,513.0,512.0,19.0,61.0,511.05,515.05
385,1555413225.0550568,503.0,519.0,19.0,61.0,510.55,515.85
386,1555413225.1254683,509.0,527.0,19.0,53.0,510.45,515.35
387,1555413225.2036417,505.0,518.0,19.0,53.0,510.1,515.35
388,1555413225.270966,507.0,520.0,19.0,53.0,510.0,515.15
389,1555413225.3498156,509.0,516.0,19.0,53.0,510.1,514.9
390,1555413225.4261677,514.0,521.0,19.0,53.0,510.35,514.9
391,1555413225.4924197,513.0,501.0,19.0,53.0,510.35,514.4
392,1555413225.5620697,514.0,497.0,14.0,32.0,510.0,515.45
393,1555413225.6358855,509.0,506.0,14.0,32.0,509.95,515.6
394,1555413225.7102807,511.0,504.0,14.0,32.0,510.05,515.3
395,1555413225.7858713,504.0,505.0,14.0,32.0,509.6,514.45
396,1555413225.8689723,510.0,523.0,13.0,32.0,510.0,514.55
397,1555413225.937524,508.0,514.0,13.0,32.0,509.85,514.45
398,1555413226.0192595,508.0,508.0,13.0,32.0,509.95,513.55
399,1555413226.0921826,508.0,497.0,13.0,32.0,509.75,512.6
400,1555413226.1704772,502.0,517.0,14.0,32.0,509.45,512.5
401,1555413226.242597,513.0,503.0,14.0,32.0,509.5,511.85
402,1555413226.3268223,506.0,505.0,12.0,32.0,509.0,512.1
403,1555413226.3983588,503.0,518.0,12.0,30.0,508.45,511.55
404,1555413226.4734526,501.0,504.0,13.0,30.0,507.85,511.15
405,1555413226.546417,496.0,517.0,18.0,30.0,507.5,511.05
406,1555413226.62282,483.0,511.0,31.0,26.0,506.2,510.25
407,1555413226.693351,480.0,507.0,34.0,26.0,504.95,509.7
408,1555413226.7737427,493.0,512.0,34.0,26.0,504.25,509.3
409,1555413226.8401763,505.0,508.0,34.0,26.0,504.05,508.9
410,1555413226.9103103,515.0,516.0,35.0,26.0,504.1,508.65
411,1555413226.998837,515.0,530.0,35.0,33.0,504.2,510.1
412,1555413227.0769002,521.0,533.0,41.0,36.0,504.55,511.9
413,1555413227.1547186,518.0,546.0,41.0,49.0,505.0,513.9
414,1555413227.2219162,518.0,557.0,41.0,60.0,505.35,516.55
415,1555413227.2969694,504.0,571.0,41.0,74.0,505.35,519.85
416,1555413227.390235,518.0,560.0,41.0,74.0,505.75,521.7
417,1555413227.4604912,521.0,578.0,41.0,81.0,506.4,524.9
418,1555413227.5361743,517.0,555.0,41.0,81.0,506.85,527.25
419,1555413227.6056645,518.0,532.0,41.0,75.0,507.35,529.0
420,1555413227.6800594,514.0,538.0,41.0,75.0,507.95,530.05
421,1555413227.7501426,518.0,541.0,41.0,74.0,508.2,531.95
422,1555413227.8282623,511.0,546.0,41.0,74.0,508.45,534.0
423,1555413227.929369,497.0,511.0,41.0,74.0,508.15,533.65
424,1555413228.001395,486.0,476.0,41.0,102.0,507.4,532.25
425,1555413228.0795743,473.0,423.0,48.0,155.0,506.25,527.55
426,1555413228.1674333,486.0,420.0,48.0,158.0,506.4,523.0
427,1555413228.2374167,498.0,408.0,48.0,170.0,507.3,518.05
428,1555413228.3216383,499.0,411.0,48.0,170.0,507.6,513.0
429,1555413228.413287,507.0,439.0,48.0,170.0,507.7,509.55
430,1555413228.500313,506.0,473.0,48.0,170.0,507.25,507.4
431,1555413228.5749862,500.0,491.0,48.0,170.0,506.5,505.45
432,1555413228.642316,508.0,496.0,48.0,170.0,505.85,503.6
433,1555413228.7122493,504.0,494.0,48.0,170.0,505.15,501.0
434,1555413228.789908,504.0,493.0,48.0,170.0,504.45,497.8
435,1555413228.8684597,509.0,479.0,48.0,170.0,504.7,493.2
436,1555413228.9634783,516.0,477.0,48.0,170.0,504.6,489.05
437,1555413229.0397997,515.0,491.0,45.0,147.0,504.3,484.7
438,1555413229.1189294,508.0,483.0,45.0,138.0,503.85,481.1
439,1555413229.2109284,501.0,513.0,45.0,138.0,503.0,480.15
440,1555413229.2853816,501.0,518.0,45.0,138.0,502.35,479.15
441,1555413229.3565218,506.0,546.0,43.0,138.0,501.75,479.4
442,1555413229.427831,507.0,532.0,43.0,138.0,501.55,478.7
443,1555413229.4937994,504.0,509.0,43.0,138.0,501.9,478.6
444,1555413229.5634887,511.0,513.0,43.0,138.0,503.15,480.45
445,1555413229.6438203,523.0,548.0,37.0,140.0,505.65,486.7
446,1555413229.721357,521.0,509.0,25.0,140.0,507.4,491.15
447,1555413229.791804,523.0,519.0,24.0,137.0,508.65,496.7
448,1555413229.8647225,518.0,533.0,23.0,109.0,509.6,502.8
449,1555413229.9367185,520.0,522.0,23.0,75.0,510.25,506.95
450,1555413230.0274937,516.0,511.0,23.0,71.0,510.75,508.85
451,1555413230.106458,520.0,486.0,22.0,71.0,511.75,508.6
452,1555413230.181168,507.0,470.0,22.0,78.0,511.7,507.3
453,1555413230.2641478,508.0,467.0,22.0,81.0,511.9,505.95
454,1555413230.3383987,521.0,489.0,22.0,81.0,512.75,505.75
455,1555413230.4167514,509.0,461.0,22.0,87.0,512.75,504.85
456,1555413230.4933054,515.0,493.0,22.0,87.0,512.7,505.65
457,1555413230.569224,515.0,498.0,22.0,87.0,512.7,506.0
458,1555413230.6446903,511.0,518.0,22.0,87.0,512.85,507.75
459,1555413230.7328846,507.0,517.0,22.0,87.0,513.15,507.95
460,1555413230.819144,508.0,516.0,19.0,87.0,513.5,507.85
461,1555413230.8924863,502.0,486.0,21.0,87.0,513.3,504.85
462,1555413230.969133,510.0,489.0,21.0,87.0,513.45,502.7
463,1555413231.046191,510.0,484.0,21.0,87.0,513.75,501.45
464,1555413231.119078,515.0,494.0,21.0,87.0,513.95,500.5
465,1555413231.192143,515.0,522.0,21.0,72.0,513.55,499.2
466,1555413231.2644613,498.0,538.0,25.0,77.0,512.4,500.65
467,1555413231.330833,505.0,509.0,23.0,77.0,511.5,500.15
468,1555413231.4063275,506.0,540.0,23.0,79.0,510.9,500.5
469,1555413231.4879353,508.0,512.0,23.0,79.0,510.3,500.0
470,1555413231.561037,507.0,535.0,23.0,79.0,509.85,501.2
471,1555413231.628317,511.0,530.0,23.0,79.0,509.4,503.4
472,1555413231.6961343,512.0,514.0,23.0,79.0,509.65,505.6
473,1555413231.7649736,506.0,474.0,23.0,79.0,509.55,505.95
474,1555413231.837818,511.0,489.0,17.0,79.0,509.05,505.95
475,1555413231.9133778,512.0,495.0,17.0,66.0,509.2,507.65
476,1555413231.9805627,507.0,511.0,17.0,66.0,508.8,508.55
477,1555413232.056364,508.0,523.0,17.0,66.0,508.45,509.8
478,1555413232.129979,505.0,511.0,17.0,66.0,508.15,509.45
479,1555413232.2157822,499.0,529.0,17.0,66.0,507.75,510.05
480,1555413232.3008292,504.0,512.0,17.0,66.0,507.55,509.85
481,1555413232.3786192,507.0,506.0,17.0,66.0,507.8,510.85
482,1555413232.4585843,514.0,500.0,17.0,66.0,508.0,511.4
483,1555413232.5294032,509.0,495.0,17.0,66.0,507.95,511.95
484,1555413232.6133757,502.0,520.0,17.0,66.0,507.3,513.25
485,1555413232.680097,508.0,505.0,16.0,66.0,506.95,512.4
486,1555413232.758839,506.0,507.0,15.0,66.0,507.35,510.85
487,1555413232.832306,505.0,536.0,15.0,66.0,507.35,512.2
488,1555413232.9174216,504.0,517.0,15.0,62.0,507.25,511.05
489,1555413232.9840522,507.0,507.0,15.0,62.0,507.2,510.8
490,1555413233.0636737,511.0,493.0,15.0,62.0,507.4,508.7
491,1555413233.1480684,515.0,489.0,16.0,62.0,507.6,506.65
492,1555413233.2145543,511.0,501.0,16.0,62.0,507.55,506.0
493,1555413233.2825732,507.0,504.0,16.0,47.0,507.6,507.5
494,1555413233.3572066,502.0,513.0,16.0,47.0,507.15,508.7
495,1555413233.4374626,512.0,508.0,16.0,47.0,507.15,509.35
496,1555413233.5199306,501.0,503.0,16.0,47.0,506.85,508.95
497,1555413233.6136498,504.0,516.0,16.0,47.0,506.65,508.6
498,1555413233.6886704,505.0,514.0,16.0,47.0,506.65,508.75
499,1555413233.778365,507.0,483.0,14.0,53.0,507.05,506.45
500,1555413233.8540802,516.0,509.0,15.0,53.0,507.65,506.3
501,1555413233.9358234,509.0,504.0,15.0,53.0,507.75,506.2
502,1555413234.012991,505.0,511.0,15.0,53.0,507.3,506.75
503,1555413234.0868893,507.0,516.0,15.0,53.0,507.2,507.8
504,1555413234.1695619,501.0,515.0,15.0,53.0,507.15,507.55
505,1555413234.2581704,500.0,507.0,16.0,53.0,506.75,507.65
506,1555413234.344613,510.0,503.0,16.0,53.0,506.95,507.45
507,1555413234.4245708,510.0,494.0,16.0,34.0,507.2,505.35
508,1555413234.494089,512.0,502.0,16.0,33.0,507.6,504.6
509,1555413234.5662243,506.0,509.0,16.0,33.0,507.55,504.7
510,1555413234.6413798,506.0,516.0,16.0,33.0,507.3,505.85
511,1555413234.711656,512.0,519.0,16.0,36.0,507.15,507.35
512,1555413234.7793367,507.0,509.0,16.0,36.0,506.95,507.75
513,1555413234.8460054,505.0,509.0,16.0,36.0,506.85,508.0
514,1555413234.9149203,507.0,512.0,16.0,36.0,507.1,507.95
515,1555413234.9853141,501.0,510.0,16.0,36.0,506.55,508.05
516,1555413235.0678885,505.0,514.0,16.0,36.0,506.75,508.6
517,1555413235.1550722,513.0,517.0,16.0,36.0,507.2,508.65
518,1555413235.2322748,516.0,490.0,16.0,36.0,507.75,507.45
519,1555413235.3071005,508.0,514.0,16.0,29.0,507.8,509.0
520,1555413235.400156,509.0,533.0,16.0,43.0,507.45,510.2
521,1555413235.4760084,500.0,499.0,16.0,43.0,507.0,509.95
522,1555413235.553842,509.0,511.0,16.0,43.0,507.2,509.95
523,1555413235.629301,508.0,515.0,16.0,43.0,507.25,509.9
524,1555413235.708662,503.0,498.0,16.0,43.0,507.35,509.05
525,1555413235.7818046,513.0,526.0,16.0,43.0,508.0,510.0
526,1555413235.8567996,513.0,498.0,16.0,43.0,508.15,509.75
527,1555413235.926812,514.0,500.0,16.0,43.0,508.35,510.05
528,1555413235.9959512,512.0,503.0,16.0,43.0,508.35,510.1
529,1555413236.062354,512.0,492.0,16.0,43.0,508.65,509.25
530,1555413236.132969,504.0,517.0,16.0,43.0,508.55,509.3
531,1555413236.2065127,502.0,503.0,16.0,43.0,508.05,508.5
532,1555413236.2843964,509.0,513.0,16.0,43.0,508.15,508.7
533,1555413236.359948,512.0,505.0,16.0,43.0,508.5,508.5
534,1555413236.4391592,505.0,505.0,16.0,43.0,508.4,508.15
535,1555413236.5202212,513.0,515.0,16.0,43.0,509.0,508.4
536,1555413236.5895522,505.0,508.0,16.0,43.0,509.0,508.1
537,1555413236.6651027,510.0,507.0,16.0,43.0,508.85,507.6
538,1555413236.7342243,506.0,496.0,14.0,41.0,508.35,507.9
539,1555413236.8124273,514.0,508.0,14.0,41.0,508.65,507.6
540,1555413236.8841708,509.0,514.0,14.0,34.0,508.65,506.65
541,1555413236.9571648,509.0,502.0,12.0,34.0,509.1,506.8
542,1555413237.044864,512.0,518.0,12.0,34.0,509.25,507.15
543,1555413237.116806,486.0,509.0,28.0,34.0,508.15,506.85
544,1555413237.2108545,494.0,489.0,28.0,37.0,507.7,506.4
545,1555413237.284744,494.0,489.0,28.0,29.0,506.75,504.55
546,1555413237.3601623,493.0,446.0,28.0,72.0,505.75,501.95
547,1555413237.437138,480.0,438.0,34.0,80.0,504.05,498.85
548,1555413237.5155993,481.0,448.0,34.0,80.0,502.5,496.1
549,1555413237.608607,477.0,538.0,37.0,100.0,500.75,498.4
550,1555413237.686063,474.0,535.0,40.0,100.0,499.25,499.3
551,1555413237.7665238,486.0,509.0,40.0,100.0,498.45,499.6
552,1555413237.8552532,494.0,489.0,40.0,100.0,497.7,498.4
553,1555413237.932392,493.0,446.0,40.0,100.0,496.75,495.45
554,1555413238.0214264,480.0,438.0,40.0,100.0,495.5,492.1
555,1555413238.090492,474.0,505.0,40.0,100.0,493.55,491.6
556,1555413238.165781,477.0,538.0,40.0,100.0,492.15,493.1
557,1555413238.2374425,474.0,535.0,40.0,100.0,490.35,494.5
558,1555413238.3197756,494.0,489.0,40.0,100.0,489.75,494.15
559,1555413238.3970833,508.0,497.0,38.0,100.0,489.45,493.6
560,1555413238.46467,525.0,549.0,51.0,111.0,490.25,495.35
561,1555413238.548928,526.0,595.0,52.0,157.0,491.1,500.0
562,1555413238.6242497,522.0,577.0,52.0,157.0,491.6,502.95
563,1555413238.700485,516.0,566.0,52.0,157.0,493.1,505.8
564,1555413238.7840466,521.0,552.0,52.0,157.0,494.45,508.95
565,1555413238.8763847,536.0,528.0,62.0,157.0,496.55,510.9
566,1555413238.9524167,522.0,492.0,62.0,157.0,498.0,513.2
567,1555413239.031999,496.0,475.0,62.0,157.0,498.8,515.05
568,1555413239.1087794,499.0,489.0,62.0,157.0,499.7,517.1
569,1555413239.1851082,543.0,487.0,69.0,157.0,503.0,514.55
570,1555413239.2638707,519.0,489.0,69.0,157.0,505.25,512.25
571,1555413239.3393345,512.0,496.0,69.0,157.0,506.55,511.6
572,1555413239.4158943,519.0,486.0,69.0,157.0,507.8,511.45
573,1555413239.489981,515.0,470.0,69.0,157.0,508.9,512.65
574,1555413239.5845118,498.0,480.0,69.0,125.0,509.8,514.75
575,1555413239.6609488,509.0,488.0,69.0,125.0,511.55,513.9
576,1555413239.738981,496.0,482.0,69.0,125.0,512.5,511.1
577,1555413239.8123162,516.0,464.0,49.0,131.0,514.6,507.55
578,1555413239.8926797,506.0,468.0,47.0,131.0,515.2,506.5
579,1555413239.973953,501.0,474.0,47.0,131.0,514.85,505.35
580,1555413240.0580275,512.0,502.0,47.0,131.0,514.2,503.0
581,1555413240.1445713,510.0,502.0,47.0,113.0,513.4,498.35
582,1555413240.210085,519.0,515.0,47.0,102.0,513.25,495.25
583,1555413240.2920072,516.0,546.0,47.0,88.0,513.25,494.25
584,1555413240.3637924,502.0,569.0,47.0,105.0,512.3,495.1
585,1555413240.440981,499.0,586.0,47.0,122.0,510.45,498.0
586,1555413240.5087113,496.0,572.0,47.0,122.0,509.15,502.0
587,1555413240.5758405,479.0,537.0,64.0,122.0,508.3,505.1
588,1555413240.6488514,483.0,512.0,64.0,122.0,507.5,506.25
589,1555413240.720058,504.0,537.0,40.0,122.0,505.55,508.75
590,1555413240.7917569,512.0,586.0,40.0,122.0,505.2,513.6
591,1555413240.8681176,518.0,541.0,40.0,122.0,505.5,515.85
592,1555413240.9392922,509.0,518.0,40.0,122.0,505.0,517.45
593,1555413241.02913,502.0,500.0,40.0,122.0,504.35,518.95
594,1555413241.1005893,489.0,486.0,40.0,122.0,503.9,519.25
595,1555413241.1704519,510.0,496.0,40.0,122.0,503.95,519.65
596,1555413241.252246,511.0,496.0,40.0,122.0,504.7,520.35
597,1555413241.3249748,525.0,506.0,46.0,118.0,505.15,522.45
598,1555413241.4019024,531.0,503.0,52.0,112.0,506.4,524.2
599,1555413241.48826,529.0,492.0,52.0,100.0,507.8,525.1
600,1555413241.557437,525.0,482.0,52.0,104.0,508.45,524.1
601,1555413241.627797,516.0,498.0,52.0,104.0,508.75,523.9
602,1555413241.7004218,523.0,534.0,52.0,104.0,508.95,524.85
603,1555413241.7748315,515.0,531.0,52.0,104.0,508.9,524.1
604,1555413241.8502736,510.0,545.0,52.0,104.0,509.3,522.9
605,1555413241.9223368,497.0,531.0,52.0,104.0,509.2,520.15
606,1555413241.9963188,498.0,524.0,52.0,104.0,509.3,517.75
607,1555413242.065291,493.0,492.0,48.0,104.0,510.0,515.5
608,1555413242.1346216,486.0,487.0,45.0,104.0,510.15,514.25
609,1555413242.2045064,480.0,501.0,51.0,104.0,508.95,512.45
610,1555413242.2756727,500.0,486.0,51.0,63.0,508.35,507.45
611,1555413242.3501441,497.0,488.0,51.0,63.0,507.3,504.8
612,1555413242.4253876,507.0,500.0,51.0,63.0,507.2,503.9
613,1555413242.5066736,496.0,490.0,51.0,63.0,506.9,503.4
614,1555413242.5768716,507.0,507.0,51.0,63.0,507.8,504.45
615,1555413242.6596916,508.0,508.0,51.0,63.0,507.7,505.05
616,1555413242.7344298,508.0,500.0,51.0,63.0,507.55,505.25
617,1555413242.8120086,502.0,481.0,51.0,64.0,506.4,504.0
618,1555413242.8846703,505.0,488.0,49.0,64.0,505.1,503.25
619,1555413242.964046,502.0,489.0,45.0,64.0,503.75,503.1
620,1555413243.045109,513.0,492.0,43.0,64.0,503.15,503.6
621,1555413243.1252291,524.0,509.0,44.0,64.0,503.55,504.15
622,1555413243.2039952,513.0,512.0,44.0,64.0,503.05,503.05
623,1555413243.2725646,511.0,545.0,44.0,64.0,502.85,503.75
624,1555413243.3483362,512.0,537.0,44.0,64.0,502.95,503.35
625,1555413243.4347775,517.0,469.0,44.0,76.0,503.95,500.25
626,1555413243.5150323,510.0,488.0,44.0,76.0,504.55,498.45
627,1555413243.592626,510.0,483.0,44.0,76.0,505.4,498.0
628,1555413243.667535,505.0,467.0,44.0,78.0,506.35,497.0
629,1555413243.7428973,499.0,499.0,28.0,78.0,507.3,496.9
630,1555413243.8258615,498.0,507.0,28.0,78.0,507.2,497.95
631,1555413243.8966937,500.0,522.0,28.0,78.0,507.35,499.65
632,1555413243.9920223,500.0,547.0,28.0,80.0,507.0,502.0
633,1555413244.0666087,509.0,529.0,26.0,80.0,507.65,503.95
634,1555413244.135816,504.0,522.0,26.0,80.0,507.5,504.7
635,1555413244.2247167,508.0,477.0,26.0,80.0,507.5,503.15
636,1555413244.3021643,514.0,492.0,26.0,80.0,507.8,502.75
637,1555413244.3806734,505.0,476.0,26.0,80.0,507.95,502.5
638,1555413244.4575677,508.0,470.0,26.0,80.0,508.1,501.6
639,1555413244.5470495,504.0,519.0,26.0,80.0,508.2,503.1
640,1555413244.6133275,507.0,502.0,26.0,80.0,507.9,503.6
641,1555413244.6826172,514.0,508.0,19.0,80.0,507.4,503.55
642,1555413244.7607605,510.0,497.0,19.0,80.0,507.25,502.8
643,1555413244.8478208,522.0,476.0,24.0,80.0,507.8,499.35
644,1555413244.9142878,516.0,494.0,24.0,80.0,508.0,497.2
645,1555413244.9849994,512.0,515.0,24.0,80.0,507.75,499.5
646,1555413245.059653,509.0,523.0,24.0,80.0,507.7,501.25
647,1555413245.128689,508.0,510.0,24.0,80.0,507.6,502.6
648,1555413245.2001035,494.0,501.0,28.0,77.0,507.05,504.3
649,1555413245.2796018,494.0,506.0,28.0,77.0,506.8,504.65
650,1555413245.355413,506.0,506.0,28.0,77.0,507.2,504.6
651,1555413245.4357567,500.0,528.0,28.0,77.0,507.2,504.9
652,1555413245.5308423,510.0,504.0,28.0,59.0,507.7,502.75
653,1555413245.6138268,512.0,510.0,28.0,58.0,507.85,501.8
654,1555413245.6878197,514.0,494.0,28.0,58.0,508.35,500.4
655,1555413245.7658436,515.0,493.0,28.0,58.0,508.7,501.2
656,1555413245.8360388,517.0,503.0,28.0,58.0,508.85,501.75
657,1555413245.9172688,508.0,500.0,28.0,58.0,509.0,502.95
658,1555413245.9915662,507.0,505.0,28.0,52.0,508.95,504.7
659,1555413246.0684195,507.0,498.0,28.0,52.0,509.1,503.65
660,1555413246.1417916,497.0,475.0,28.0,53.0,508.6,502.3
661,1555413246.228567,498.0,522.0,28.0,53.0,507.8,503.0
662,1555413246.3034294,499.0,496.0,28.0,53.0,507.25,502.95
663,1555413246.3723621,511.0,508.0,23.0,53.0,506.7,504.55
664,1555413246.4502714,510.0,507.0,23.0,53.0,506.4,505.2
665,1555413246.525293,512.0,537.0,23.0,62.0,506.4,506.3
666,1555413246.606213,508.0,505.0,23.0,62.0,506.35,505.4
667,1555413246.6787863,504.0,520.0,23.0,62.0,506.15,505.9
668,1555413246.7512224,510.0,497.0,23.0,62.0,506.95,505.7
669,1555413246.8291082,508.0,499.0,20.0,62.0,507.65,505.35
670,1555413246.9026623,505.0,490.0,20.0,62.0,507.6,504.55
671,1555413246.9771674,511.0,507.0,20.0,62.0,508.15,503.5
672,1555413247.0584276,504.0,495.0,20.0,62.0,507.85,503.05
673,1555413247.131186,505.0,521.0,20.0,62.0,507.5,503.6
674,1555413247.2146955,512.0,551.0,20.0,76.0,507.4,506.45
675,1555413247.2991202,506.0,503.0,20.0,76.0,506.95,506.95
676,1555413247.37123,509.0,508.0,15.0,76.0,506.55,507.2
677,1555413247.442143,510.0,511.0,15.0,76.0,506.65,507.75
678,1555413247.5098846,508.0,504.0,15.0,76.0,506.7,507.7
679,1555413247.5890882,511.0,484.0,15.0,76.0,506.9,507.0
680,1555413247.6719933,506.0,509.0,14.0,67.0,507.35,508.7
681,1555413247.758451,510.0,524.0,13.0,67.0,507.95,508.8
682,1555413247.830659,505.0,517.0,8.0,67.0,508.25,509.85
683,1555413247.9013608,519.0,512.0,15.0,67.0,508.65,510.05
684,1555413247.9704716,509.0,505.0,15.0,67.0,508.6,509.95
685,1555413248.038217,511.0,506.0,15.0,67.0,508.55,508.4
686,1555413248.1137025,510.0,512.0,15.0,67.0,508.65,508.75
687,1555413248.185838,504.0,513.0,15.0,67.0,508.65,508.4
688,1555413248.2652435,504.0,505.0,15.0,67.0,508.35,508.8
689,1555413248.3381355,503.0,501.0,16.0,67.0,508.1,508.9
690,1555413248.4142032,503.0,498.0,16.0,67.0,508.0,509.3
691,1555413248.4937103,510.0,525.0,16.0,67.0,507.95,510.2
692,1555413248.56718,509.0,515.0,16.0,67.0,508.2,511.2
693,1555413248.6437085,508.0,518.0,16.0,67.0,508.35,511.05
694,1555413248.7287154,511.0,528.0,16.0,44.0,508.3,509.9
695,1555413248.803195,511.0,520.0,16.0,44.0,508.55,510.75
696,1555413248.8787851,507.0,512.0,16.0,44.0,508.45,510.95
697,1555413248.9504719,513.0,507.0,16.0,44.0,508.6,510.75
698,1555413249.0238621,512.0,516.0,16.0,44.0,508.8,511.35
699,1555413249.1071382,512.0,510.0,16.0,30.0,508.85,512.65
700,1555413249.1810074,506.0,510.0,16.0,30.0,508.85,512.7
701,1555413249.258446,508.0,512.0,16.0,30.0,508.75,512.1
702,1555413249.328067,507.0,505.0,16.0,30.0,508.85,511.5
703,1555413249.4078283,510.0,518.0,10.0,30.0,508.4,511.8
704,1555413249.4780755,510.0,508.0,10.0,30.0,508.45,511.95
705,1555413249.5494022,506.0,513.0,10.0,30.0,508.2,512.3
706,1555413249.6293035,500.0,515.0,13.0,30.0,507.7,512.45
707,1555413249.7169163,503.0,505.0,13.0,30.0,507.65,512.05
708,1555413249.8157127,508.0,540.0,13.0,42.0,507.85,513.8
709,1555413249.903479,502.0,511.0,13.0,42.0,507.8,514.3
710,1555413249.9944766,509.0,505.0,13.0,35.0,508.1,514.65
711,1555413250.0715477,507.0,518.0,13.0,35.0,507.95,514.3
712,1555413250.1501803,504.0,513.0,13.0,35.0,507.7,514.2
713,1555413250.2357998,505.0,529.0,13.0,35.0,507.55,514.75
714,1555413250.3117907,505.0,512.0,13.0,35.0,507.25,513.95
715,1555413250.4059732,515.0,496.0,15.0,44.0,507.45,512.75
716,1555413250.4861066,507.0,498.0,15.0,44.0,507.45,512.05
717,1555413250.5678785,511.0,517.0,15.0,44.0,507.35,512.55
718,1555413250.6459255,511.0,514.0,15.0,44.0,507.3,512.45
719,1555413250.7304494,511.0,500.0,15.0,44.0,507.25,511.95
720,1555413250.79794,513.0,495.0,15.0,45.0,507.6,511.2
721,1555413250.8684561,504.0,497.0,15.0,45.0,507.4,510.45
722,1555413250.935111,512.0,495.0,15.0,45.0,507.65,509.95
723,1555413251.0034447,513.0,539.0,15.0,45.0,507.8,511.0
724,1555413251.076924,507.0,531.0,15.0,45.0,507.65,512.15
725,1555413251.14882,505.0,527.0,15.0,45.0,507.6,512.85
726,1555413251.2261515,496.0,517.0,19.0,45.0,507.4,512.95
727,1555413251.3011212,508.0,501.0,19.0,45.0,507.65,512.75
728,1555413251.3781443,513.0,496.0,19.0,44.0,507.9,510.55
729,1555413251.4567835,526.0,495.0,30.0,44.0,509.1,509.75
730,1555413251.530193,519.0,540.0,30.0,45.0,509.6,511.5
731,1555413251.597117,511.0,506.0,30.0,45.0,509.8,510.9
732,1555413251.6851401,518.0,516.0,30.0,45.0,510.5,511.05
733,1555413251.7665186,514.0,519.0,30.0,45.0,510.95,510.55
734,1555413251.839717,513.0,530.0,30.0,45.0,511.35,511.45
735,1555413251.9200575,511.0,509.0,30.0,45.0,511.15,512.1
736,1555413252.0067637,501.0,505.0,30.0,45.0,510.85,512.45
737,1555413252.091581,513.0,487.0,30.0,53.0,510.95,510.95
738,1555413252.1659768,506.0,475.0,30.0,65.0,510.7,509.0
739,1555413252.2333567,517.0,515.0,30.0,65.0,511.0,509.75
740,1555413252.3113897,511.0,532.0,30.0,65.0,510.9,511.6
741,1555413252.3961253,507.0,532.0,30.0,65.0,511.05,513.35
742,1555413252.4763277,512.0,521.0,30.0,65.0,511.05,514.65
743,1555413252.5577507,499.0,512.0,30.0,65.0,510.35,513.3
744,1555413252.6240504,501.0,521.0,30.0,65.0,510.05,512.8
745,1555413252.693704,509.0,520.0,30.0,65.0,510.25,512.45
746,1555413252.7695725,514.0,505.0,27.0,65.0,511.15,511.85
747,1555413252.840538,513.0,490.0,27.0,65.0,511.4,511.3
748,1555413252.911817,510.0,497.0,27.0,65.0,511.25,511.35
749,1555413252.980069,507.0,537.0,20.0,65.0,510.3,513.45
750,1555413253.0479584,505.0,512.0,19.0,62.0,509.6,512.05
751,1555413253.1234436,509.0,526.0,19.0,62.0,509.5,513.05
752,1555413253.2013464,508.0,528.0,18.0,62.0,509.0,513.65
753,1555413253.2734952,505.0,519.0,18.0,62.0,508.55,513.65
754,1555413253.3425527,513.0,528.0,18.0,62.0,508.55,513.55
755,1555413253.4198549,517.0,504.0,18.0,62.0,508.85,513.3
756,1555413253.4943943,521.0,518.0,22.0,62.0,509.85,513.95
757,1555413253.563929,519.0,520.0,22.0,62.0,510.15,515.6
758,1555413253.6464334,514.0,529.0,22.0,47.0,510.55,518.3
759,1555413253.7218366,516.0,531.0,22.0,47.0,510.5,519.1
760,1555413253.796636,513.0,526.0,22.0,47.0,510.6,518.8
761,1555413253.871129,501.0,529.0,22.0,47.0,510.3,518.65
762,1555413253.9571507,514.0,523.0,22.0,47.0,510.4,518.75
763,1555413254.0404925,507.0,519.0,20.0,47.0,510.8,519.1
764,1555413254.118716,502.0,509.0,20.0,47.0,510.85,518.5
765,1555413254.211405,514.0,504.0,20.0,47.0,511.1,517.7
766,1555413254.283359,502.0,484.0,20.0,53.0,510.5,516.65
767,1555413254.3679838,505.0,506.0,20.0,53.0,510.1,517.45
768,1555413254.4460547,497.0,524.0,24.0,53.0,509.45,518.8
769,1555413254.521697,499.0,494.0,24.0,47.0,509.05,516.65
770,1555413254.5956128,505.0,490.0,24.0,47.0,509.05,515.55
771,1555413254.6745808,504.0,493.0,24.0,47.0,508.8,513.9
772,1555413254.7657058,504.0,520.0,24.0,47.0,508.6,513.5
773,1555413254.8558578,510.0,501.0,24.0,47.0,508.85,512.6
774,1555413254.9396627,516.0,506.0,24.0,47.0,509.0,511.5
775,1555413255.0249226,515.0,500.0,24.0,47.0,508.9,511.3
776,1555413255.0959775,512.0,505.0,22.0,47.0,508.45,510.65
777,1555413255.1799507,517.0,512.0,20.0,47.0,508.35,510.25
778,1555413255.2606394,512.0,511.0,20.0,47.0,508.25,509.35
779,1555413255.347088,506.0,490.0,20.0,45.0,507.75,507.3
780,1555413255.4412413,511.0,505.0,20.0,45.0,507.65,506.25
781,1555413255.515531,511.0,505.0,20.0,40.0,508.15,505.05
782,1555413255.6054184,511.0,503.0,20.0,40.0,508.0,504.05
783,1555413255.6787167,514.0,514.0,20.0,40.0,508.35,503.8
784,1555413255.7451746,511.0,494.0,20.0,40.0,508.8,503.05
785,1555413255.8199368,509.0,486.0,20.0,40.0,508.55,502.15
786,1555413255.8962183,514.0,505.0,20.0,38.0,509.15,503.2
787,1555413255.9783175,503.0,511.0,20.0,38.0,509.05,503.45
788,1555413256.0580606,509.0,533.0,18.0,47.0,509.65,503.9
789,1555413256.1417742,500.0,488.0,17.0,47.0,509.7,503.6
790,1555413256.2276356,511.0,494.0,17.0,47.0,510.0,503.8
791,1555413256.3114657,501.0,469.0,17.0,64.0,509.85,502.6
792,1555413256.399095,510.0,492.0,17.0,64.0,510.15,501.2
793,1555413256.4719076,509.0,498.0,17.0,64.0,510.1,501.05
794,1555413256.5456188,516.0,517.0,17.0,64.0,510.1,501.6
795,1555413256.6292827,502.0,516.0,17.0,64.0,509.45,502.4
796,1555413256.707206,504.0,493.0,17.0,64.0,509.05,501.8
797,1555413256.77713,506.0,487.0,16.0,64.0,508.5,500.55
798,1555413256.854063,506.0,503.0,16.0,64.0,508.2,500.15
799,1555413256.9276643,502.0,507.0,16.0,64.0,508.0,501.0
800,1555413257.0048454,505.0,502.0,16.0,64.0,507.7,500.85
801,1555413257.0827262,509.0,489.0,16.0,64.0,507.6,500.05
802,1555413257.159153,509.0,482.0,16.0,64.0,507.5,499.0
803,1555413257.2297423,510.0,511.0,16.0,64.0,507.3,498.85
804,1555413257.3102512,506.0,519.0,16.0,64.0,507.05,500.1
805,1555413257.3836896,512.0,519.0,16.0,64.0,507.2,501.75
806,1555413257.4669764,508.0,517.0,16.0,64.0,506.9,502.35
807,1555413257.5402915,507.0,504.0,16.0,64.0,507.1,502.0
808,1555413257.6275868,505.0,507.0,16.0,50.0,506.9,500.7
809,1555413257.7142072,507.0,500.0,15.0,50.0,507.25,501.3
810,1555413257.7920566,510.0,519.0,15.0,50.0,507.2,502.55
811,1555413257.868638,514.0,500.0,14.0,37.0,507.85,504.1
812,1555413257.953079,516.0,506.0,14.0,37.0,508.15,504.8
813,1555413258.032761,512.0,532.0,14.0,50.0,508.3,506.5
814,1555413258.11046,509.0,524.0,14.0,50.0,507.95,506.85
815,1555413258.1848242,511.0,522.0,14.0,50.0,508.4,507.15
816,1555413258.2619715,492.0,522.0,24.0,50.0,507.8,508.6
817,1555413258.335923,511.0,526.0,24.0,50.0,508.05,510.55
818,1555413258.4134538,503.0,497.0,24.0,50.0,507.9,510.25
819,1555413258.4850936,515.0,497.0,24.0,50.0,508.55,509.75
820,1555413258.5614824,524.0,516.0,32.0,50.0,509.5,510.45
821,1555413258.6505175,503.0,572.0,32.0,90.0,509.2,514.6
822,1555413258.7235215,513.0,550.0,32.0,75.0,509.4,518.0
823,1555413258.7988198,513.0,531.0,32.0,75.0,509.55,519.0
824,1555413258.872911,507.0,528.0,32.0,75.0,509.6,519.45
825,1555413258.9490857,517.0,505.0,32.0,75.0,509.85,518.75
826,1555413259.034044,510.0,512.0,32.0,75.0,509.95,518.5
827,1555413259.105994,510.0,528.0,32.0,75.0,510.1,519.7
828,1555413259.186438,523.0,523.0,32.0,75.0,511.0,520.5
829,1555413259.2552967,511.0,500.0,32.0,75.0,511.2,520.5
830,1555413259.3349407,517.0,493.0,32.0,79.0,511.55,519.2
831,1555413259.416467,517.0,507.0,32.0,79.0,511.7,519.55
832,1555413259.4938903,512.0,516.0,32.0,79.0,511.5,520.05
833,1555413259.5679135,510.0,491.0,32.0,81.0,511.4,518.0
834,1555413259.6466367,516.0,526.0,32.0,81.0,511.75,518.1
835,1555413259.7153401,500.0,484.0,32.0,88.0,511.2,516.2
836,1555413259.7852237,506.0,491.0,24.0,88.0,511.9,514.65
837,1555413259.8526943,493.0,506.0,31.0,88.0,511.0,513.65
838,1555413259.9275713,502.0,491.0,31.0,88.0,510.95,513.35
839,1555413260.0038726,504.0,505.0,31.0,88.0,510.4,513.75
840,1555413260.0823016,500.0,497.0,30.0,88.0,509.2,512.8
841,1555413260.1577013,497.0,519.0,30.0,66.0,508.9,510.15
842,1555413260.2326646,505.0,503.0,30.0,47.0,508.5,507.8
843,1555413260.303926,507.0,513.0,30.0,44.0,508.2,506.9
844,1555413260.3847656,506.0,505.0,30.0,44.0,508.15,505.75
845,1555413260.4522605,504.0,487.0,30.0,44.0,507.5,504.85
846,1555413260.5308936,505.0,493.0,30.0,44.0,507.25,503.9
847,1555413260.6106632,511.0,487.0,30.0,42.0,507.3,501.85
848,1555413260.694102,510.0,486.0,24.0,42.0,506.65,500.0
849,1555413260.7833624,512.0,500.0,24.0,42.0,506.7,500.0
850,1555413260.867909,508.0,501.0,24.0,42.0,506.25,500.4
851,1555413260.9386816,504.0,513.0,23.0,42.0,505.6,500.7
852,1555413261.0191877,505.0,511.0,23.0,42.0,505.25,500.45
853,1555413261.0917954,500.0,513.0,23.0,42.0,504.75,501.55
854,1555413261.1836584,511.0,495.0,19.0,35.0,504.5,500.0
855,1555413261.2626498,513.0,515.0,20.0,33.0,505.15,501.55
856,1555413261.3528364,507.0,539.0,20.0,53.0,505.2,503.95
857,1555413261.4271002,514.0,523.0,17.0,53.0,506.25,504.8
858,1555413261.5047424,513.0,507.0,17.0,53.0,506.8,505.6
859,1555413261.5779886,514.0,506.0,17.0,53.0,507.3,505.65
860,1555413261.6514163,514.0,506.0,17.0,53.0,508.0,506.1
861,1555413261.7293508,517.0,478.0,17.0,61.0,509.0,504.05
862,1555413261.8018873,511.0,495.0,17.0,61.0,509.3,503.65
863,1555413261.875014,508.0,524.0,17.0,61.0,509.35,504.2
864,1555413261.9444451,507.0,539.0,17.0,61.0,509.4,505.9
865,1555413262.012246,514.0,523.0,17.0,61.0,509.9,507.7
866,1555413262.0833056,513.0,507.0,17.0,61.0,510.3,508.4
867,1555413262.180082,514.0,506.0,17.0,61.0,510.45,509.35
868,1555413262.2550495,501.0,470.0,17.0,69.0,510.0,508.55
869,1555413262.328498,509.0,474.0,17.0,69.0,509.85,507.25
870,1555413262.4129033,503.0,484.0,17.0,69.0,509.6,506.4
871,1555413262.487429,508.0,481.0,17.0,69.0,509.8,504.8
872,1555413262.573215,502.0,499.0,17.0,69.0,509.65,504.2
873,1555413262.6508217,502.0,536.0,16.0,69.0,509.75,505.35
874,1555413262.7309659,513.0,517.0,16.0,69.0,509.85,506.45
875,1555413262.8038583,504.0,512.0,16.0,69.0,509.4,506.3
876,1555413262.8741963,507.0,508.0,16.0,69.0,509.4,504.75
877,1555413262.954707,518.0,484.0,17.0,69.0,509.6,502.8
878,1555413263.044413,492.0,523.0,26.0,69.0,508.55,503.6
879,1555413263.1175222,505.0,503.0,26.0,69.0,508.1,503.45
880,1555413263.1964777,506.0,522.0,26.0,69.0,507.7,504.25
881,1555413263.2741761,511.0,521.0,26.0,69.0,507.4,506.4
882,1555413263.3643456,512.0,528.0,26.0,69.0,507.45,508.05
883,1555413263.4382677,514.0,524.0,26.0,69.0,507.75,508.05
884,1555413263.5124772,513.0,513.0,26.0,66.0,508.05,506.75
885,1555413263.5852878,521.0,505.0,29.0,66.0,508.4,505.85
886,1555413263.6649282,511.0,476.0,29.0,66.0,508.3,504.3
887,1555413263.746521,518.0,486.0,29.0,66.0,508.5,503.3
888,1555413263.8222759,511.0,498.0,29.0,62.0,509.0,504.7
889,1555413263.889977,511.0,556.0,29.0,80.0,509.1,508.8
890,1555413263.9642577,503.0,482.0,29.0,80.0,509.1,508.7
891,1555413264.0526552,499.0,493.0,29.0,80.0,508.65,509.3
892,1555413264.1397212,511.0,514.0,29.0,80.0,509.1,510.05
893,1555413264.225845,501.0,503.0,29.0,80.0,509.05,508.4
894,1555413264.299654,500.0,502.0,29.0,80.0,508.4,507.65
895,1555413264.3808196,506.0,492.0,29.0,80.0,508.5,506.65
896,1555413264.4566393,522.0,494.0,30.0,80.0,509.25,505.95
897,1555413264.531524,511.0,500.0,30.0,80.0,508.9,506.75
898,1555413264.6076553,514.0,537.0,23.0,80.0,510.0,507.45
899,1555413264.7142437,513.0,519.0,23.0,80.0,510.4,508.25
900,1555413264.788158,514.0,531.0,23.0,80.0,510.8,508.7
901,1555413264.8566706,509.0,513.0,23.0,80.0,510.7,508.3
902,1555413264.9410064,505.0,499.0,23.0,80.0,510.35,506.85
903,1555413265.0219572,513.0,509.0,23.0,80.0,510.3,506.1
904,1555413265.0934262,523.0,490.0,24.0,80.0,510.8,504.95
905,1555413265.1590962,518.0,501.0,24.0,80.0,510.65,504.75
906,1555413265.2254877,520.0,499.0,24.0,74.0,511.1,505.9
907,1555413265.293295,519.0,509.0,24.0,74.0,511.15,507.05
908,1555413265.3640044,514.0,501.0,24.0,74.0,511.3,507.2
909,1555413265.4306006,510.0,502.0,24.0,55.0,511.25,504.5
910,1555413265.5054238,513.0,530.0,24.0,47.0,511.75,506.9
911,1555413265.5797293,507.0,545.0,23.0,55.0,512.15,509.5
912,1555413265.661855,502.0,507.0,23.0,55.0,511.7,509.15
913,1555413265.7318845,483.0,531.0,40.0,55.0,510.8,510.55
914,1555413265.8176126,514.0,483.0,40.0,62.0,511.5,509.6
915,1555413265.8953862,514.0,489.0,40.0,62.0,511.9,509.45
916,1555413265.9713128,519.0,497.0,40.0,62.0,511.75,509.6
917,1555413266.0485024,508.0,504.0,40.0,62.0,511.6,509.8
918,1555413266.1284926,510.0,556.0,40.0,73.0,511.4,510.75
919,1555413266.2001054,504.0,501.0,40.0,73.0,510.95,509.85
920,1555413266.2753587,509.0,537.0,40.0,73.0,510.7,510.15
921,1555413266.3434396,510.0,512.0,40.0,73.0,510.75,510.1
922,1555413266.412369,506.0,509.0,40.0,73.0,510.8,510.6
923,1555413266.483542,513.0,523.0,40.0,73.0,510.8,511.3
924,1555413266.5565941,513.0,502.0,37.0,73.0,510.3,511.9
925,1555413266.6321218,511.0,502.0,37.0,73.0,509.95,511.95
926,1555413266.7114677,511.0,501.0,36.0,73.0,509.5,512.05
927,1555413266.7873592,511.0,499.0,36.0,73.0,509.1,511.55
928,1555413266.8663077,510.0,509.0,36.0,73.0,508.9,511.95
929,1555413266.9499872,506.0,519.0,36.0,73.0,508.7,512.8
930,1555413267.020511,498.0,510.0,36.0,73.0,507.95,511.8
931,1555413267.0929334,507.0,508.0,36.0,73.0,507.95,509.95
932,1555413267.1694672,507.0,516.0,36.0,73.0,508.2,510.4
933,1555413267.2438443,505.0,503.0,21.0,73.0,509.3,509.0
934,1555413267.3135111,514.0,509.0,21.0,67.0,509.3,510.3
935,1555413267.3818386,510.0,512.0,21.0,59.0,509.1,511.45
936,1555413267.468436,500.0,502.0,16.0,57.0,508.15,511.7
937,1555413267.5477924,513.0,521.0,16.0,57.0,508.4,512.55
938,1555413267.635549,507.0,513.0,16.0,38.0,508.25,510.4
939,1555413267.7094033,508.0,543.0,16.0,44.0,508.45,512.5
940,1555413267.7767334,511.0,501.0,16.0,44.0,508.55,510.7
941,1555413267.847892,506.0,510.0,16.0,44.0,508.35,510.6
942,1555413267.9333692,508.0,496.0,16.0,47.0,508.45,509.95
943,1555413268.01384,510.0,495.0,16.0,48.0,508.3,508.55
944,1555413268.0857708,520.0,475.0,22.0,68.0,508.65,507.2
945,1555413268.1608756,511.0,494.0,22.0,68.0,508.65,506.8
946,1555413268.2337632,507.0,488.0,22.0,68.0,508.45,506.15
947,1555413268.3040993,506.0,528.0,22.0,68.0,508.2,507.6
948,1555413268.3839238,510.0,511.0,22.0,68.0,508.2,507.7
949,1555413268.4574854,504.0,520.0,22.0,68.0,508.1,507.75
950,1555413268.552344,508.0,514.0,20.0,68.0,508.6,507.95
951,1555413268.6213627,507.0,516.0,20.0,68.0,508.6,508.35
952,1555413268.6919825,511.0,498.0,20.0,68.0,508.8,507.45
953,1555413268.7654984,508.0,484.0,20.0,68.0,508.95,506.5
954,1555413268.8408713,513.0,498.0,20.0,68.0,508.9,505.95
955,1555413268.915442,509.0,539.0,20.0,68.0,508.85,507.3
956,1555413269.0019002,505.0,511.0,16.0,68.0,509.1,507.75
957,1555413269.082115,503.0,500.0,17.0,68.0,508.6,506.7
958,1555413269.1649992,507.0,501.0,17.0,68.0,508.6,506.1
959,1555413269.2440858,510.0,505.0,17.0,64.0,508.7,504.2
960,1555413269.3188894,506.0,528.0,17.0,64.0,508.45,505.55
961,1555413269.3905513,512.0,506.0,17.0,64.0,508.75,505.35
962,1555413269.4611936,516.0,509.0,17.0,64.0,509.15,506.0
963,1555413269.534934,510.0,492.0,17.0,64.0,509.15,505.85
964,1555413269.6088414,512.0,501.0,13.0,55.0,508.75,507.15
965,1555413269.6896598,511.0,511.0,13.0,55.0,508.75,508.0
966,1555413269.763775,499.0,521.0,17.0,55.0,508.35,509.65
967,1555413269.840976,499.0,519.0,17.0,55.0,508.0,509.2
968,1555413269.9138317,500.0,523.0,17.0,55.0,507.5,509.8
969,1555413269.9950945,499.0,519.0,17.0,55.0,507.25,509.75
970,1555413270.0725505,514.0,495.0,17.0,55.0,507.55,508.8
971,1555413270.1645608,510.0,510.0,17.0,55.0,507.7,508.5
972,1555413270.2394984,509.0,520.0,17.0,55.0,507.6,509.6
973,1555413270.3271458,509.0,519.0,17.0,47.0,507.65,511.35
974,1555413270.407411,502.0,496.0,17.0,47.0,507.1,511.25
975,1555413270.4933872,498.0,498.0,18.0,36.0,506.55,509.2
976,1555413270.5659435,504.0,505.0,18.0,36.0,506.5,508.9
977,1555413270.6323214,511.0,559.0,18.0,67.0,506.9,511.85
978,1555413270.7113512,516.0,487.0,18.0,72.0,507.35,511.15
979,1555413270.7947378,512.0,490.0,18.0,72.0,507.45,510.4
980,1555413270.8685396,514.0,477.0,18.0,82.0,507.85,507.85
981,1555413270.942387,507.0,484.0,18.0,82.0,507.6,506.75
982,1555413271.012595,533.0,507.0,35.0,82.0,508.45,506.65
983,1555413271.0801086,521.0,567.0,35.0,90.0,509.0,510.4
984,1555413271.1484385,505.0,477.0,35.0,90.0,508.65,509.2
985,1555413271.2162495,509.0,524.0,35.0,90.0,508.55,509.85
986,1555413271.2871516,508.0,494.0,35.0,90.0,509.0,508.5
987,1555413271.36525,510.0,521.0,35.0,90.0,509.55,508.6
988,1555413271.4433305,524.0,539.0,35.0,90.0,510.75,509.4
989,1555413271.5225585,522.0,544.0,35.0,90.0,511.9,510.65
990,1555413271.6074958,519.0,501.0,35.0,90.0,512.15,510.95
991,1555413271.6916707,520.0,494.0,35.0,90.0,512.65,510.15
992,1555413271.7711935,516.0,520.0,35.0,90.0,513.0,510.15
993,1555413271.8448775,519.0,547.0,35.0,90.0,513.5,511.55
994,1555413271.9150686,520.0,528.0,35.0,90.0,514.4,513.15
995,1555413271.9852087,503.0,535.0,30.0,90.0,514.65,515.0
996,1555413272.0608432,500.0,499.0,33.0,90.0,514.45,514.7
997,1555413272.1401205,500.0,497.0,33.0,90.0,513.9,511.6
998,1555413272.214045,494.0,523.0,39.0,90.0,512.8,513.4
999,1555413272.3001347,504.0,516.0,39.0,90.0,512.4,514.7
1000,1555413272.3776498,501.0,478.0,39.0,90.0,511.75,514.75
1001,1555413272.456382,484.0,485.0,49.0,90.0,510.6,514.8
1002,1555413272.5463135,493.0,487.0,40.0,90.0,508.6,513.8
1003,1555413272.62859,500.0,518.0,40.0,70.0,507.55,511.35
1004,1555413272.6956336,502.0,547.0,40.0,69.0,507.4,514.85
1005,1555413272.7640831,502.0,508.0,40.0,69.0,507.05,514.05
1006,1555413272.8338544,497.0,498.0,40.0,69.0,506.5,514.25
