,unixtime,emg0,emg1,emg0_ampl,emg1_ampl,emg0_med,emg1_med
0,1555413709.8283916,506.0,510.0,9.0,14.0,508.4,509.8
1,1555413709.8935454,510.0,503.0,9.0,14.0,508.65,509.35
2,1555413709.9575226,515.0,500.0,9.0,17.0,509.25,508.65
3,1555413710.0361025,515.0,500.0,9.0,17.0,509.6,508.1
4,1555413710.1010404,509.0,511.0,9.0,17.0,509.6,508.15
5,1555413710.1630893,508.0,512.0,9.0,17.0,509.55,508.3
6,1555413710.2265189,509.0,513.0,9.0,17.0,509.5,508.4
7,1555413710.2932804,506.0,513.0,9.0,17.0,509.25,508.55
8,1555413710.3556635,506.0,509.0,9.0,17.0,509.1,508.65
9,1555413710.4182432,507.0,511.0,9.0,17.0,508.9,508.6
10,1555413710.486884,511.0,511.0,9.0,14.0,509.0,508.3
11,1555413710.5503302,512.0,507.0,9.0,14.0,509.25,508.05
12,1555413710.6135466,513.0,501.0,9.0,14.0,509.6,507.7
13,1555413710.6821349,513.0,501.0,9.0,14.0,509.65,507.6
14,1555413710.766561,511.0,507.0,9.0,14.0,509.6,507.8
15,1555413710.832733,505.0,508.0,10.0,14.0,509.3,507.75
16,1555413710.8996627,501.0,513.0,14.0,14.0,508.9,508.0
17,1555413710.9671535,504.0,509.0,14.0,14.0,508.65,508.15
18,1555413711.037187,506.0,509.0,14.0,14.0,508.65,508.1
19,1555413711.1027777,508.0,507.0,14.0,13.0,508.75,507.75
20,1555413711.1662717,507.0,512.0,14.0,13.0,508.8,507.85
21,1555413711.2384684,511.0,514.0,14.0,14.0,508.85,508.4
22,1555413711.3026576,510.0,505.0,14.0,14.0,508.6,508.65
23,1555413711.3854492,507.0,515.0,12.0,14.0,508.2,509.4
24,1555413711.451131,508.0,511.0,12.0,14.0,508.15,509.4
25,1555413711.522642,510.0,509.0,12.0,14.0,508.25,509.25
26,1555413711.5953429,512.0,501.0,12.0,14.0,508.4,508.65
27,1555413711.6670897,505.0,510.0,12.0,14.0,508.35,508.5
28,1555413711.7291594,504.0,511.0,12.0,14.0,508.25,508.6
29,1555413711.793708,507.0,510.0,12.0,14.0,508.25,508.55
30,1555413711.8577957,509.0,514.0,12.0,14.0,508.15,508.7
31,1555413711.9236233,507.0,515.0,12.0,14.0,507.9,509.1
32,1555413711.9919186,508.0,511.0,12.0,14.0,507.65,509.6
33,1555413712.0709927,510.0,509.0,11.0,14.0,507.5,510.0
34,1555413712.1408358,512.0,501.0,11.0,14.0,507.55,509.7
35,1555413712.210864,512.0,501.0,11.0,14.0,507.9,509.35
36,1555413712.275356,505.0,510.0,8.0,14.0,508.1,509.2
37,1555413712.3425639,504.0,511.0,8.0,14.0,508.1,509.3
38,1555413712.4098148,507.0,510.0,8.0,14.0,508.15,509.35
39,1555413712.4797838,509.0,514.0,8.0,14.0,508.2,509.7
40,1555413712.555556,507.0,515.0,8.0,14.0,508.2,509.85
41,1555413712.6375232,510.0,509.0,8.0,14.0,508.15,509.6
42,1555413712.705712,512.0,501.0,8.0,14.0,508.25,509.4
43,1555413712.7967753,507.0,495.0,8.0,20.0,508.25,508.4
44,1555413712.8661695,506.0,501.0,8.0,20.0,508.15,507.9
45,1555413712.9394577,507.0,505.0,8.0,20.0,508.0,507.7
46,1555413713.0208223,508.0,507.0,8.0,20.0,507.8,508.0
47,1555413713.0909808,505.0,508.0,8.0,20.0,507.8,507.9
48,1555413713.1647103,506.0,507.0,8.0,20.0,507.9,507.7
49,1555413713.234063,506.0,511.0,8.0,20.0,507.85,507.75
50,1555413713.312431,505.0,510.0,8.0,20.0,507.65,507.55
51,1555413713.3819294,509.0,508.0,8.0,20.0,507.75,507.2
52,1555413713.452156,512.0,500.0,8.0,20.0,507.95,506.65
53,1555413713.5216935,511.0,501.0,8.0,20.0,508.0,506.25
54,1555413713.5972135,514.0,505.0,10.0,20.0,508.1,506.45
55,1555413713.6727846,512.0,503.0,10.0,20.0,508.1,506.55
56,1555413713.7452717,511.0,508.0,10.0,20.0,508.4,506.45
57,1555413713.8212583,510.0,507.0,9.0,20.0,508.7,506.25
58,1555413713.8948958,505.0,510.0,9.0,20.0,508.6,506.25
59,1555413713.960877,506.0,513.0,9.0,20.0,508.45,506.2
60,1555413714.0297458,506.0,505.0,9.0,18.0,508.4,505.7
61,1555413714.1060176,509.0,502.0,9.0,18.0,508.35,505.35
62,1555413714.179337,511.0,505.0,9.0,18.0,508.3,505.55
63,1555413714.2480342,515.0,502.0,10.0,13.0,508.7,505.9
64,1555413714.3219752,515.0,505.0,10.0,13.0,509.15,506.1
65,1555413714.394555,512.0,500.0,10.0,13.0,509.4,505.85
66,1555413714.4654496,506.0,502.0,10.0,13.0,509.3,505.6
67,1555413714.541071,507.0,505.0,10.0,13.0,509.4,505.45
68,1555413714.6165087,506.0,509.0,10.0,13.0,509.4,505.55
69,1555413714.6956148,507.0,513.0,10.0,13.0,509.45,505.65
70,1555413714.7668405,506.0,514.0,10.0,14.0,509.5,505.85
71,1555413714.8455493,511.0,508.0,10.0,14.0,509.6,505.85
72,1555413714.916037,510.0,503.0,10.0,14.0,509.5,506.0
73,1555413714.997933,509.0,501.0,10.0,14.0,509.4,506.0
74,1555413715.0723855,508.0,499.0,10.0,15.0,509.1,505.7
75,1555413715.1467605,508.0,508.0,10.0,15.0,508.9,505.95
76,1555413715.2252982,507.0,513.0,10.0,15.0,508.7,506.2
77,1555413715.2946653,510.0,511.0,10.0,15.0,508.7,506.4
78,1555413715.364983,509.0,512.0,9.0,15.0,508.9,506.5
79,1555413715.4402401,509.0,515.0,9.0,16.0,509.05,506.6
80,1555413715.5107613,505.0,510.0,10.0,16.0,509.0,506.85
81,1555413715.5971358,508.0,508.0,10.0,16.0,508.95,507.15
82,1555413715.6860905,515.0,501.0,10.0,16.0,509.15,506.95
83,1555413715.7654963,515.0,500.0,10.0,16.0,509.15,506.85
84,1555413715.843273,513.0,499.0,10.0,16.0,509.05,506.55
85,1555413715.909997,507.0,503.0,10.0,16.0,508.8,506.7
86,1555413715.9753578,506.0,507.0,10.0,16.0,508.8,506.95
87,1555413716.0514872,506.0,510.0,10.0,16.0,508.75,507.2
88,1555413716.1257453,507.0,513.0,10.0,16.0,508.8,507.4
89,1555413716.2020404,506.0,514.0,10.0,16.0,508.75,507.45
90,1555413716.2754617,510.0,517.0,10.0,18.0,508.95,507.6
91,1555413716.3508797,514.0,508.0,10.0,18.0,509.1,507.6
92,1555413716.4328244,513.0,507.0,10.0,18.0,509.25,507.8
93,1555413716.513153,508.0,506.0,10.0,18.0,509.2,508.05
94,1555413716.5876377,506.0,509.0,10.0,18.0,509.1,508.55
95,1555413716.6829612,507.0,511.0,10.0,18.0,509.05,508.7
96,1555413716.7627828,508.0,513.0,10.0,18.0,509.1,508.7
97,1555413716.8351128,507.0,511.0,10.0,18.0,508.95,508.7
98,1555413716.9101632,510.0,513.0,10.0,18.0,509.0,508.75
99,1555413716.9830956,510.0,515.0,10.0,18.0,509.05,508.75
100,1555413717.0604916,509.0,509.0,9.0,18.0,509.25,508.7
101,1555413717.1467755,510.0,502.0,9.0,18.0,509.35,508.4
102,1555413717.2205627,510.0,500.0,9.0,18.0,509.1,508.35
103,1555413717.2969713,511.0,507.0,8.0,18.0,508.9,508.7
104,1555413717.3771198,511.0,511.0,8.0,17.0,508.8,509.3
105,1555413717.4541872,511.0,512.0,8.0,17.0,509.0,509.75
106,1555413717.5306325,509.0,510.0,8.0,17.0,509.15,509.9
107,1555413717.6006036,506.0,512.0,8.0,17.0,509.15,510.0
108,1555413717.6824453,505.0,512.0,9.0,17.0,509.05,509.95
109,1555413717.7618403,508.0,517.0,9.0,17.0,509.15,510.1
110,1555413717.832032,516.0,506.0,11.0,17.0,509.45,509.55
111,1555413717.899082,516.0,505.0,11.0,17.0,509.55,509.4
112,1555413717.9656885,510.0,508.0,11.0,17.0,509.4,509.45
113,1555413718.0338953,506.0,513.0,11.0,17.0,509.3,509.8
114,1555413718.1038692,506.0,511.0,11.0,17.0,509.3,509.9
115,1555413718.1733825,508.0,515.0,11.0,17.0,509.35,510.1
116,1555413718.251691,510.0,514.0,11.0,17.0,509.45,510.15
117,1555413718.3289928,509.0,514.0,11.0,17.0,509.55,510.3
118,1555413718.4079115,513.0,512.0,11.0,17.0,509.7,510.25
119,1555413718.4866283,508.0,511.0,11.0,17.0,509.6,510.05
120,1555413718.55785,506.0,509.0,11.0,17.0,509.45,510.05
121,1555413718.6279604,507.0,495.0,11.0,22.0,509.3,509.7
122,1555413718.6991634,508.0,503.0,11.0,22.0,509.2,509.85
123,1555413718.7760892,508.0,508.0,11.0,22.0,509.05,509.9
124,1555413718.8670511,508.0,509.0,11.0,22.0,508.9,509.8
125,1555413718.9460542,509.0,511.0,11.0,22.0,508.8,509.75
126,1555413719.0143669,508.0,511.0,11.0,22.0,508.75,509.8
127,1555413719.089531,506.0,512.0,11.0,22.0,508.75,509.8
128,1555413719.173802,504.0,514.0,12.0,22.0,508.7,509.9
129,1555413719.247116,505.0,512.0,12.0,20.0,508.55,509.65
130,1555413719.3255394,504.0,511.0,12.0,20.0,507.95,509.9
131,1555413719.395345,509.0,508.0,9.0,20.0,507.6,510.05
132,1555413719.483997,513.0,506.0,9.0,20.0,507.75,509.95
133,1555413719.5605092,512.0,511.0,9.0,20.0,508.05,509.85
134,1555413719.6365037,509.0,508.0,9.0,20.0,508.2,509.7
135,1555413719.7098248,506.0,512.0,9.0,19.0,508.1,509.55
136,1555413719.7779436,508.0,511.0,9.0,19.0,508.0,509.4
137,1555413719.8448098,508.0,514.0,9.0,19.0,507.95,509.4
138,1555413719.9105434,509.0,516.0,9.0,21.0,507.75,509.6
139,1555413719.9905784,514.0,508.0,10.0,21.0,508.05,509.45
140,1555413720.0638213,512.0,508.0,10.0,21.0,508.35,509.4
141,1555413720.1472707,511.0,505.0,10.0,13.0,508.55,509.9
142,1555413720.21644,508.0,505.0,10.0,11.0,508.55,510.0
143,1555413720.2849064,510.0,508.0,10.0,11.0,508.65,510.0
144,1555413720.3612819,509.0,510.0,10.0,11.0,508.7,510.05
145,1555413720.428931,508.0,512.0,10.0,11.0,508.65,510.1
146,1555413720.502085,510.0,516.0,10.0,11.0,508.75,510.35
147,1555413720.5881553,508.0,515.0,10.0,11.0,508.85,510.5
148,1555413720.6591654,505.0,512.0,10.0,11.0,508.9,510.4
149,1555413720.7375455,507.0,507.0,10.0,11.0,509.0,510.15
150,1555413720.816713,507.0,501.0,9.0,15.0,509.15,509.65
151,1555413720.9135852,509.0,501.0,9.0,15.0,509.15,509.3
152,1555413720.9924555,512.0,511.0,9.0,15.0,509.1,509.55
153,1555413721.064089,510.0,512.0,9.0,15.0,509.0,509.6
154,1555413721.1402605,508.0,513.0,9.0,15.0,508.95,509.85
155,1555413721.2138748,506.0,513.0,9.0,15.0,508.95,509.9
156,1555413721.2831833,506.0,503.0,9.0,15.0,508.85,509.5
157,1555413721.354941,507.0,509.0,9.0,15.0,508.8,509.25
158,1555413721.4310625,510.0,504.0,9.0,15.0,508.85,508.65
159,1555413721.505095,514.0,506.0,9.0,15.0,508.85,508.55
160,1555413721.5816214,514.0,506.0,9.0,15.0,508.95,508.45
161,1555413721.654685,513.0,503.0,9.0,15.0,509.05,508.35
162,1555413721.7323043,512.0,506.0,9.0,15.0,509.25,508.4
163,1555413721.8074784,507.0,506.0,9.0,15.0,509.1,508.3
164,1555413721.8898792,505.0,513.0,9.0,15.0,508.9,508.45
165,1555413721.9706445,507.0,510.0,9.0,15.0,508.85,508.35
166,1555413722.0535479,510.0,515.0,9.0,14.0,508.85,508.3
167,1555413722.1380408,510.0,514.0,9.0,14.0,508.95,508.25
168,1555413722.2147174,508.0,510.0,9.0,14.0,509.1,508.15
169,1555413722.2910368,511.0,500.0,9.0,15.0,509.3,507.8
170,1555413722.3645203,509.0,501.0,9.0,15.0,509.4,507.8
171,1555413722.4534798,506.0,507.0,9.0,15.0,509.25,508.1
172,1555413722.5413773,508.0,512.0,9.0,15.0,509.05,508.15
173,1555413722.6128144,509.0,510.0,9.0,15.0,509.0,508.05
174,1555413722.6810353,510.0,513.0,9.0,15.0,509.1,508.05
175,1555413722.7488618,512.0,511.0,9.0,15.0,509.4,507.95
176,1555413722.8191826,508.0,507.0,9.0,15.0,509.5,508.15
177,1555413722.8933742,508.0,514.0,9.0,15.0,509.55,508.4
178,1555413722.972078,506.0,508.0,9.0,15.0,509.35,508.6
179,1555413723.0644505,508.0,501.0,9.0,15.0,509.05,508.35
180,1555413723.1398911,512.0,502.0,8.0,15.0,508.95,508.15
181,1555413723.2139316,512.0,507.0,7.0,15.0,508.9,508.35
182,1555413723.2871268,509.0,508.0,7.0,15.0,508.75,508.45
183,1555413723.3540132,509.0,508.0,7.0,15.0,508.85,508.55
184,1555413723.421611,506.0,507.0,6.0,15.0,508.9,508.25
185,1555413723.4902117,504.0,508.0,8.0,15.0,508.75,508.15
186,1555413723.5617113,505.0,510.0,8.0,14.0,508.5,507.9
187,1555413723.6310706,506.0,512.0,8.0,14.0,508.3,507.8
188,1555413723.6995592,509.0,508.0,8.0,14.0,508.35,507.7
189,1555413723.7702632,511.0,506.0,8.0,13.0,508.35,508.0
190,1555413723.8383598,513.0,501.0,9.0,13.0,508.55,508.0
191,1555413723.908323,515.0,506.0,11.0,13.0,509.0,507.95
192,1555413723.9962194,512.0,508.0,11.0,13.0,509.2,507.75
193,1555413724.0707998,508.0,514.0,11.0,13.0,509.15,507.95
194,1555413724.153532,508.0,518.0,11.0,17.0,509.05,508.2
195,1555413724.2319489,507.0,513.0,11.0,17.0,508.8,508.3
196,1555413724.304706,509.0,513.0,11.0,17.0,508.85,508.6
197,1555413724.38101,511.0,508.0,11.0,17.0,509.0,508.3
198,1555413724.460675,514.0,501.0,11.0,17.0,509.4,507.95
199,1555413724.5273411,513.0,499.0,11.0,19.0,509.65,507.85
200,1555413724.59493,511.0,499.0,11.0,19.0,509.6,507.7
201,1555413724.668721,511.0,503.0,11.0,19.0,509.55,507.5
202,1555413724.7482214,506.0,509.0,11.0,19.0,509.4,507.55
203,1555413724.819046,504.0,515.0,11.0,19.0,509.15,507.9
204,1555413724.8989987,507.0,514.0,11.0,19.0,509.2,508.25
205,1555413724.9734223,508.0,515.0,11.0,19.0,509.4,508.6
206,1555413725.0470512,510.0,512.0,11.0,19.0,509.65,508.7
207,1555413725.1225548,509.0,509.0,11.0,19.0,509.8,508.55
208,1555413725.1980193,511.0,507.0,11.0,19.0,509.9,508.5
209,1555413725.268676,512.0,505.0,11.0,19.0,509.95,508.45
210,1555413725.3431969,509.0,505.0,11.0,19.0,509.75,508.65
211,1555413725.413412,508.0,511.0,10.0,19.0,509.4,508.9
212,1555413725.4875224,510.0,513.0,10.0,19.0,509.3,509.15
213,1555413725.5779657,510.0,514.0,10.0,19.0,509.4,509.15
214,1555413725.6533484,510.0,514.0,10.0,16.0,509.5,508.95
215,1555413725.7203166,509.0,508.0,10.0,16.0,509.6,508.7
216,1555413725.7891862,508.0,506.0,10.0,16.0,509.55,508.35
217,1555413725.8557394,509.0,504.0,10.0,16.0,509.45,508.15
218,1555413725.9266744,512.0,503.0,9.0,16.0,509.35,508.25
219,1555413725.9999573,511.0,506.0,8.0,16.0,509.25,508.6
220,1555413726.072483,513.0,499.0,9.0,16.0,509.35,508.6
221,1555413726.1438107,512.0,500.0,9.0,16.0,509.4,508.45
222,1555413726.2233367,514.0,507.0,10.0,16.0,509.8,508.35
223,1555413726.2966802,511.0,512.0,7.0,16.0,510.15,508.2
224,1555413726.371319,508.0,507.0,6.0,16.0,510.2,507.85
225,1555413726.4598942,507.0,512.0,7.0,15.0,510.15,507.7
226,1555413726.5402882,503.0,512.0,11.0,15.0,509.8,507.7
227,1555413726.6311526,507.0,512.0,11.0,15.0,509.7,507.85
228,1555413726.704875,512.0,503.0,11.0,15.0,509.75,507.65
229,1555413726.7851114,514.0,505.0,11.0,15.0,509.85,507.65
230,1555413726.8615837,512.0,502.0,11.0,15.0,510.0,507.5
231,1555413726.9385219,509.0,512.0,11.0,15.0,510.05,507.55
232,1555413727.0056934,510.0,510.0,11.0,15.0,510.05,507.4
233,1555413727.0888417,506.0,512.0,11.0,15.0,509.85,507.3
234,1555413727.179713,507.0,514.0,11.0,15.0,509.7,507.3
235,1555413727.2699368,507.0,512.0,11.0,15.0,509.6,507.5
236,1555413727.3453004,510.0,508.0,11.0,15.0,509.7,507.6
237,1555413727.4244688,512.0,505.0,11.0,15.0,509.85,507.65
238,1555413727.5128493,512.0,498.0,11.0,16.0,509.85,507.4
239,1555413727.5909872,510.0,501.0,11.0,16.0,509.8,507.15
240,1555413727.6603081,507.0,505.0,11.0,16.0,509.5,507.45
241,1555413727.7352102,507.0,511.0,11.0,16.0,509.25,508.0
242,1555413727.8076298,507.0,511.0,11.0,16.0,508.9,508.2
243,1555413727.8974564,507.0,512.0,11.0,16.0,508.7,508.2
244,1555413727.9683511,508.0,512.0,11.0,16.0,508.7,508.45
245,1555413728.0662909,510.0,504.0,11.0,16.0,508.85,508.05
246,1555413728.139366,511.0,501.0,8.0,16.0,509.25,507.5
247,1555413728.2074773,512.0,503.0,8.0,16.0,509.5,507.05
248,1555413728.2747552,508.0,508.0,8.0,16.0,509.3,507.3
249,1555413728.3455336,508.0,509.0,6.0,16.0,509.0,507.5
250,1555413728.4297621,505.0,511.0,7.0,16.0,508.65,507.95
251,1555413728.507067,507.0,513.0,7.0,16.0,508.55,508.0
252,1555413728.5857806,509.0,511.0,7.0,16.0,508.5,508.05
253,1555413728.661831,508.0,510.0,7.0,16.0,508.6,507.95
254,1555413728.7375968,508.0,510.0,7.0,15.0,508.65,507.75
255,1555413728.8143928,513.0,504.0,8.0,15.0,508.95,507.35
256,1555413728.888675,511.0,503.0,8.0,15.0,509.0,507.1
257,1555413728.9646776,510.0,502.0,8.0,15.0,508.9,506.95
258,1555413729.041029,509.0,503.0,8.0,12.0,508.75,507.2
259,1555413729.116747,509.0,507.0,8.0,12.0,508.7,507.5
260,1555413729.1876934,510.0,507.0,8.0,12.0,508.85,507.6
261,1555413729.2734096,508.0,511.0,8.0,12.0,508.9,507.6
262,1555413729.3526635,507.0,513.0,8.0,12.0,508.9,507.7
263,1555413729.4389098,505.0,513.0,8.0,12.0,508.8,507.75
264,1555413729.5183332,502.0,516.0,11.0,15.0,508.5,507.95
265,1555413729.6103625,513.0,505.0,11.0,15.0,508.65,508.0
266,1555413729.6886356,513.0,502.0,11.0,14.0,508.75,508.05
267,1555413729.7648842,513.0,504.0,11.0,14.0,508.8,508.1
268,1555413729.8371277,512.0,510.0,11.0,14.0,509.0,508.2
269,1555413729.9191954,509.0,511.0,11.0,14.0,509.05,508.3
270,1555413729.994472,507.0,512.0,11.0,14.0,509.15,508.35
271,1555413730.0836327,506.0,518.0,11.0,16.0,509.1,508.6
272,1555413730.1650658,507.0,513.0,11.0,16.0,509.0,508.7
273,1555413730.2421935,509.0,510.0,11.0,16.0,509.05,508.7
274,1555413730.318893,512.0,502.0,11.0,16.0,509.25,508.3
275,1555413730.3932083,515.0,499.0,13.0,19.0,509.35,508.05
276,1555413730.4665027,510.0,500.0,13.0,19.0,509.3,507.9
277,1555413730.5450096,508.0,501.0,13.0,19.0,509.2,507.85
278,1555413730.6388242,508.0,515.0,13.0,19.0,509.15,508.45
279,1555413730.7201784,506.0,510.0,13.0,19.0,509.0,508.6
280,1555413730.808597,510.0,508.0,13.0,19.0,509.0,508.65
281,1555413730.8838189,512.0,513.0,13.0,19.0,509.2,508.75
282,1555413730.9588761,513.0,506.0,13.0,19.0,509.5,508.4
283,1555413731.0378745,511.0,502.0,13.0,19.0,509.8,507.85
284,1555413731.1140344,509.0,508.0,9.0,19.0,510.15,507.45
285,1555413731.2046318,509.0,513.0,9.0,19.0,509.95,507.85
286,1555413731.2819185,509.0,514.0,9.0,19.0,509.75,508.45
287,1555413731.3690326,511.0,516.0,9.0,19.0,509.65,509.05
288,1555413731.454475,510.0,515.0,9.0,19.0,509.55,509.3
289,1555413731.525086,509.0,511.0,9.0,19.0,509.55,509.3
290,1555413731.61546,509.0,509.0,9.0,19.0,509.65,509.15
291,1555413731.6976507,507.0,507.0,9.0,17.0,509.7,508.6
292,1555413731.7653677,507.0,502.0,9.0,17.0,509.7,508.05
293,1555413731.85016,510.0,503.0,9.0,17.0,509.75,507.7
294,1555413731.9241498,511.0,503.0,9.0,17.0,509.7,507.75
295,1555413731.9945285,510.0,505.0,7.0,16.0,509.45,508.05
296,1555413732.0725944,509.0,512.0,7.0,15.0,509.4,508.65
297,1555413732.1597192,505.0,512.0,8.0,14.0,509.25,509.2
298,1555413732.2264214,502.0,511.0,11.0,14.0,508.95,509.0
299,1555413732.298317,504.0,511.0,11.0,14.0,508.85,509.05
300,1555413732.3673985,506.0,514.0,11.0,14.0,508.65,509.35
301,1555413732.455631,513.0,507.0,11.0,14.0,508.7,509.05
302,1555413732.5343282,512.0,507.0,11.0,14.0,508.65,509.1
303,1555413732.6074965,511.0,509.0,11.0,14.0,508.65,509.45
304,1555413732.6837525,510.0,506.0,11.0,14.0,508.7,509.35
305,1555413732.7562265,509.0,507.0,11.0,14.0,508.7,509.05
306,1555413732.8326025,507.0,509.0,11.0,14.0,508.6,508.8
307,1555413732.915692,505.0,513.0,11.0,13.0,508.3,508.65
308,1555413732.9829483,506.0,511.0,11.0,12.0,508.1,508.45
309,1555413733.0502813,508.0,512.0,11.0,12.0,508.05,508.5
310,1555413733.1280973,513.0,506.0,11.0,12.0,508.25,508.35
311,1555413733.209533,515.0,504.0,13.0,12.0,508.65,508.2
312,1555413733.2825384,509.0,500.0,13.0,14.0,508.75,508.1
313,1555413733.3573835,511.0,506.0,13.0,14.0,508.8,508.25
314,1555413733.4279432,509.0,503.0,13.0,14.0,508.7,508.25
315,1555413733.507394,506.0,507.0,13.0,14.0,508.5,508.35
316,1555413733.5870907,505.0,509.0,13.0,14.0,508.3,508.2
317,1555413733.663931,509.0,514.0,13.0,14.0,508.5,508.3
318,1555413733.7383718,508.0,515.0,11.0,15.0,508.8,508.5
319,1555413733.8159084,509.0,516.0,10.0,16.0,509.05,508.75
320,1555413733.8924432,507.0,509.0,10.0,16.0,509.1,508.5
321,1555413733.9821177,510.0,504.0,10.0,16.0,508.95,508.35
322,1555413734.0561364,512.0,504.0,10.0,16.0,508.95,508.2
323,1555413734.128003,509.0,508.0,10.0,16.0,508.85,508.15
324,1555413734.202418,507.0,514.0,10.0,16.0,508.7,508.55
325,1555413734.2787194,508.0,510.0,10.0,16.0,508.65,508.7
326,1555413734.3637953,508.0,509.0,10.0,16.0,508.7,508.7
327,1555413734.452033,512.0,511.0,10.0,16.0,509.05,508.6
328,1555413734.536899,510.0,512.0,10.0,16.0,509.25,508.65
329,1555413734.6234658,508.0,508.0,10.0,16.0,509.25,508.45
330,1555413734.7052755,511.0,504.0,10.0,16.0,509.15,508.35
331,1555413734.7956414,512.0,504.0,7.0,16.0,509.0,508.35
332,1555413734.8671365,513.0,507.0,8.0,13.0,509.2,508.7
333,1555413734.9546053,508.0,507.0,8.0,13.0,509.05,508.75
334,1555413735.0336702,507.0,509.0,8.0,12.0,508.95,509.05
335,1555413735.1065273,507.0,513.0,8.0,12.0,509.0,509.35
336,1555413735.1868002,506.0,511.0,7.0,12.0,509.05,509.45
337,1555413735.2548149,508.0,511.0,7.0,12.0,509.0,509.3
338,1555413735.3288407,511.0,508.0,7.0,12.0,509.15,508.95
339,1555413735.3997886,514.0,504.0,8.0,10.0,509.4,508.35
340,1555413735.472308,514.0,509.0,8.0,10.0,509.75,508.35
341,1555413735.5457592,512.0,507.0,8.0,10.0,509.85,508.5
342,1555413735.6150796,501.0,501.0,13.0,13.0,509.3,508.35
343,1555413735.6862094,496.0,505.0,18.0,13.0,508.65,508.2
344,1555413735.7675724,506.0,512.0,18.0,12.0,508.6,508.1
345,1555413735.8405554,517.0,512.0,21.0,12.0,509.05,508.2
346,1555413735.9134185,517.0,512.0,21.0,12.0,509.5,508.35
347,1555413735.9936662,514.0,513.0,21.0,12.0,509.6,508.45
348,1555413736.07179,515.0,502.0,21.0,12.0,509.85,507.95
349,1555413736.1616235,501.0,501.0,21.0,12.0,509.5,507.6
350,1555413736.2365568,496.0,505.0,21.0,12.0,508.75,507.65
351,1555413736.3044696,506.0,512.0,21.0,12.0,508.45,508.05
352,1555413736.3766124,525.0,510.0,29.0,12.0,509.05,508.2
353,1555413736.443869,519.0,507.0,29.0,12.0,509.6,508.2
354,1555413736.5148304,511.0,502.0,29.0,12.0,509.8,507.85
355,1555413736.5841835,503.0,508.0,29.0,12.0,509.6,507.6
356,1555413736.6502886,495.0,509.0,30.0,12.0,509.05,507.5
357,1555413736.72192,492.0,511.0,33.0,12.0,508.25,507.5
358,1555413736.7964616,501.0,494.0,33.0,19.0,507.75,506.8
359,1555413736.871284,511.0,460.0,33.0,53.0,507.6,504.6
360,1555413736.9465308,507.0,475.0,33.0,53.0,507.25,502.9
361,1555413737.014372,520.0,507.0,33.0,53.0,507.65,502.9
362,1555413737.0955617,534.0,528.0,42.0,68.0,509.3,504.25
363,1555413737.181407,531.0,536.0,42.0,76.0,511.05,505.8
364,1555413737.2593808,499.0,544.0,42.0,84.0,510.7,507.4
365,1555413737.3357997,481.0,527.0,53.0,84.0,508.9,508.15
366,1555413737.4120047,478.0,524.0,56.0,84.0,506.95,508.75
367,1555413737.4974465,492.0,513.0,56.0,84.0,505.85,508.75
368,1555413737.5719914,521.0,507.0,56.0,84.0,506.15,509.0
369,1555413737.6471457,534.0,521.0,56.0,84.0,507.8,510.0
370,1555413737.7346563,522.0,525.0,56.0,84.0,509.1,511.0
371,1555413737.8148494,500.0,521.0,56.0,84.0,508.8,511.45
372,1555413737.8820996,482.0,501.0,56.0,84.0,506.65,511.0
373,1555413737.9563518,485.0,496.0,56.0,84.0,504.95,510.45
374,1555413738.0387366,503.0,496.0,56.0,84.0,504.55,510.15
375,1555413738.120203,526.0,504.0,56.0,84.0,505.7,509.95
376,1555413738.1872823,540.0,512.0,62.0,84.0,507.95,510.1
377,1555413738.2584217,542.0,510.0,64.0,84.0,510.45,510.05
378,1555413738.335626,524.0,505.0,64.0,84.0,511.6,510.6
379,1555413738.418987,508.0,492.0,64.0,69.0,511.45,512.2
380,1555413738.5000336,485.0,484.0,64.0,60.0,510.35,512.65
381,1555413738.581402,486.0,499.0,64.0,60.0,508.65,512.25
382,1555413738.6568408,500.0,503.0,64.0,60.0,506.95,511.0
383,1555413738.7367795,524.0,499.0,64.0,60.0,506.6,509.15
384,1555413738.8113725,524.0,503.0,64.0,43.0,507.85,507.1
385,1555413738.8925545,513.0,506.0,64.0,41.0,509.45,506.05
386,1555413738.9644356,503.0,505.0,60.0,41.0,510.7,505.1
387,1555413739.0416508,496.0,505.0,60.0,41.0,510.9,504.7
388,1555413739.1215575,499.0,507.0,60.0,41.0,509.8,504.7
389,1555413739.2022033,514.0,511.0,60.0,41.0,508.8,504.2
390,1555413739.3013117,527.0,508.0,60.0,37.0,509.05,503.35
391,1555413739.3686082,527.0,507.0,60.0,28.0,510.4,502.65
392,1555413739.435394,519.0,506.0,57.0,28.0,512.25,502.9
393,1555413739.5057974,508.0,508.0,57.0,28.0,513.4,503.5
394,1555413739.5841513,496.0,516.0,57.0,32.0,513.05,504.5
395,1555413739.6576269,491.0,516.0,57.0,32.0,511.3,505.1
396,1555413739.7242358,494.0,501.0,57.0,32.0,509.0,504.55
397,1555413739.8130858,504.0,503.0,42.0,32.0,507.1,504.2
398,1555413739.8896735,519.0,498.0,42.0,32.0,506.85,503.85
399,1555413739.9555855,532.0,496.0,47.0,32.0,508.05,504.05
400,1555413740.0264964,531.0,506.0,46.0,20.0,510.35,505.15
401,1555413740.1001663,517.0,510.0,41.0,20.0,511.9,505.7
402,1555413740.1835291,492.0,513.0,41.0,20.0,511.5,506.2
403,1555413740.276962,491.0,516.0,41.0,20.0,509.85,507.05
404,1555413740.346877,517.0,512.0,41.0,20.0,509.5,507.5
405,1555413740.4179738,522.0,507.0,41.0,20.0,509.95,507.55
406,1555413740.4882486,523.0,504.0,41.0,20.0,510.95,507.5
407,1555413740.5547972,513.0,508.0,41.0,20.0,511.8,507.65
408,1555413740.6233582,498.0,505.0,41.0,20.0,511.75,507.55
409,1555413740.7059317,492.0,510.0,41.0,20.0,510.65,507.5
410,1555413740.778485,500.0,517.0,41.0,21.0,509.3,507.95
411,1555413740.8443453,509.0,512.0,41.0,21.0,508.4,508.2
412,1555413740.9125714,516.0,510.0,41.0,21.0,508.25,508.4
413,1555413741.0005372,520.0,499.0,41.0,21.0,508.85,507.95
414,1555413741.0727355,516.0,502.0,41.0,21.0,509.85,507.25
415,1555413741.145535,512.0,504.0,41.0,21.0,510.9,506.65
416,1555413741.2375872,512.0,507.0,41.0,21.0,511.8,506.95
417,1555413741.3135297,507.0,509.0,41.0,21.0,511.95,507.25
418,1555413741.4022217,513.0,508.0,41.0,21.0,511.65,507.75
419,1555413741.4688654,510.0,505.0,40.0,18.0,510.55,508.2
420,1555413741.536901,509.0,509.0,32.0,18.0,509.45,508.35
421,1555413741.6113951,503.0,513.0,32.0,18.0,508.75,508.5
422,1555413741.68343,500.0,510.0,32.0,18.0,509.15,508.35
423,1555413741.7569602,494.0,508.0,31.0,18.0,509.3,507.95
424,1555413741.830101,494.0,505.0,31.0,18.0,508.15,507.6
425,1555413741.9003441,504.0,505.0,31.0,18.0,507.25,507.5
426,1555413741.9758468,517.0,502.0,28.0,18.0,506.95,507.4
427,1555413742.0489209,525.0,503.0,33.0,18.0,507.55,507.15
428,1555413742.1210911,525.0,509.0,33.0,18.0,508.9,507.35
429,1555413742.2205923,509.0,518.0,31.0,19.0,509.75,507.75
430,1555413742.2929447,497.0,513.0,31.0,19.0,509.6,507.55
431,1555413742.3625522,498.0,513.0,31.0,19.0,509.05,507.6
432,1555413742.4428282,502.0,512.0,31.0,19.0,508.35,507.7
433,1555413742.5227664,508.0,503.0,31.0,16.0,507.75,507.9
434,1555413742.5933025,508.0,505.0,31.0,16.0,507.35,508.05
435,1555413742.680987,511.0,498.0,31.0,20.0,507.3,507.75
436,1555413742.7619052,511.0,503.0,31.0,20.0,507.25,507.55
437,1555413742.8364584,508.0,504.0,31.0,20.0,507.3,507.3
438,1555413742.9154427,509.0,508.0,31.0,20.0,507.1,507.3
439,1555413742.994207,505.0,513.0,31.0,20.0,506.85,507.7
440,1555413743.0715144,503.0,513.0,31.0,20.0,506.55,507.9
441,1555413743.1457539,509.0,516.0,31.0,20.0,506.85,508.05
442,1555413743.2234051,508.0,506.0,31.0,20.0,507.25,507.85
443,1555413743.3002968,508.0,499.0,31.0,20.0,507.95,507.4
444,1555413743.378823,512.0,500.0,28.0,20.0,508.85,507.15
445,1555413743.4547858,508.0,509.0,28.0,20.0,509.05,507.35
446,1555413743.5374835,503.0,515.0,28.0,20.0,508.35,508.0
447,1555413743.6115503,505.0,511.0,28.0,20.0,507.35,508.4
448,1555413743.6896942,512.0,510.0,15.0,20.0,506.7,508.45
449,1555413743.7567434,513.0,509.0,16.0,18.0,506.9,508.0
450,1555413743.8363159,513.0,507.0,15.0,18.0,507.7,507.7
451,1555413743.9128537,510.0,513.0,11.0,18.0,508.3,507.7
452,1555413743.9888148,505.0,502.0,10.0,18.0,508.45,507.2
453,1555413744.0639977,498.0,502.0,15.0,18.0,507.95,507.15
454,1555413744.1361978,507.0,503.0,15.0,18.0,507.9,507.05
455,1555413744.2235239,522.0,504.0,24.0,17.0,508.45,507.35
456,1555413744.2951248,516.0,508.0,24.0,17.0,508.7,507.6
457,1555413744.3695397,505.0,508.0,24.0,17.0,508.55,507.8
458,1555413744.452004,495.0,515.0,27.0,17.0,507.85,508.15
459,1555413744.528425,501.0,515.0,27.0,17.0,507.65,508.25
460,1555413744.606534,506.0,511.0,27.0,17.0,507.8,508.15
461,1555413744.6724486,512.0,513.0,27.0,16.0,507.95,508.0
462,1555413744.7455473,517.0,500.0,27.0,16.0,508.4,507.7
463,1555413744.8317456,516.0,503.0,27.0,15.0,508.8,507.9
464,1555413744.901458,512.0,509.0,27.0,15.0,508.8,508.35
465,1555413744.9779134,503.0,516.0,27.0,16.0,508.55,508.7
466,1555413745.0541823,507.0,514.0,27.0,16.0,508.75,508.65
467,1555413745.130278,508.0,516.0,27.0,16.0,508.9,508.9
468,1555413745.2025523,508.0,507.0,27.0,16.0,508.7,508.75
469,1555413745.2904723,505.0,509.0,27.0,16.0,508.3,508.75
470,1555413745.3817067,506.0,503.0,27.0,16.0,507.95,508.55
471,1555413745.4728415,506.0,501.0,27.0,16.0,507.75,507.95
472,1555413745.5433545,508.0,499.0,27.0,17.0,507.9,507.8
473,1555413745.6219246,513.0,507.0,27.0,17.0,508.65,508.05
474,1555413745.6937065,515.0,508.0,27.0,17.0,509.05,508.3
475,1555413745.7629693,514.0,507.0,22.0,17.0,508.65,508.45
476,1555413745.8296325,511.0,510.0,22.0,17.0,508.4,508.55
477,1555413745.8988314,505.0,512.0,22.0,17.0,508.4,508.75
478,1555413745.9763405,499.0,511.0,18.0,17.0,508.6,508.55
479,1555413746.0476332,496.0,510.0,21.0,17.0,508.35,508.3
480,1555413746.1248462,510.0,502.0,21.0,17.0,508.55,507.85
481,1555413746.2136023,513.0,505.0,21.0,17.0,508.6,507.45
482,1555413746.2917964,513.0,505.0,20.0,17.0,508.4,507.7
483,1555413746.3702338,511.0,510.0,19.0,17.0,508.15,508.05
484,1555413746.4481614,507.0,513.0,19.0,17.0,507.9,508.25
485,1555413746.5368447,502.0,514.0,19.0,17.0,507.85,508.15
486,1555413746.612284,506.0,511.0,19.0,17.0,507.8,508.0
487,1555413746.688666,511.0,510.0,19.0,15.0,507.95,507.7
488,1555413746.7597027,512.0,510.0,19.0,15.0,508.15,507.85
489,1555413746.8283615,511.0,507.0,19.0,15.0,508.45,507.75
490,1555413746.8960726,508.0,502.0,19.0,15.0,508.55,507.7
491,1555413746.9774911,510.0,507.0,19.0,15.0,508.75,508.0
492,1555413747.0558178,507.0,507.0,19.0,12.0,508.7,508.4
493,1555413747.1314151,510.0,511.0,19.0,12.0,508.55,508.6
494,1555413747.201075,508.0,515.0,18.0,13.0,508.2,508.95
495,1555413747.2754772,503.0,512.0,17.0,13.0,507.65,509.2
496,1555413747.3462315,506.0,514.0,17.0,13.0,507.4,509.4
497,1555413747.4468784,510.0,512.0,17.0,13.0,507.65,509.4
498,1555413747.5742106,512.0,503.0,17.0,13.0,508.3,509.0
499,1555413747.6565511,510.0,507.0,11.0,13.0,509.0,508.85
500,1555413747.7266905,512.0,509.0,11.0,13.0,509.1,509.2
501,1555413747.7977917,512.0,507.0,11.0,13.0,509.05,509.3
502,1555413747.8697143,513.0,510.0,11.0,13.0,509.05,509.55
503,1555413747.9524148,503.0,513.0,11.0,13.0,508.65,509.7
504,1555413748.0287983,502.0,513.0,11.0,13.0,508.4,509.7
505,1555413748.0996063,509.0,509.0,11.0,13.0,508.75,509.45
506,1555413748.1672838,510.0,508.0,11.0,13.0,508.95,509.3
507,1555413748.2581685,515.0,502.0,13.0,13.0,509.15,508.9
508,1555413748.3310912,513.0,500.0,13.0,15.0,509.2,508.4
509,1555413748.3977323,510.0,504.0,13.0,15.0,509.15,508.25
510,1555413748.466752,509.0,507.0,13.0,15.0,509.2,508.5
511,1555413748.546442,509.0,507.0,13.0,15.0,509.15,508.5
512,1555413748.6253636,506.0,513.0,13.0,15.0,509.1,508.8
513,1555413748.711405,506.0,513.0,13.0,15.0,508.9,508.9
514,1555413748.788997,509.0,507.0,13.0,14.0,508.95,508.5
515,1555413748.8672798,511.0,509.0,13.0,14.0,509.35,508.35
516,1555413748.9402077,511.0,498.0,13.0,15.0,509.6,507.55
517,1555413749.0197089,511.0,504.0,13.0,15.0,509.65,507.15
518,1555413749.0868144,510.0,510.0,13.0,15.0,509.55,507.5
519,1555413749.1557531,510.0,508.0,13.0,15.0,509.55,507.55
520,1555413749.2495031,507.0,512.0,13.0,15.0,509.3,507.7
521,1555413749.3348465,507.0,510.0,13.0,15.0,509.05,507.85
522,1555413749.4264615,512.0,505.0,13.0,15.0,509.0,507.6
523,1555413749.5099223,510.0,508.0,13.0,15.0,509.35,507.35
524,1555413749.583435,511.0,499.0,9.0,15.0,509.8,506.65
525,1555413749.651096,508.0,501.0,9.0,15.0,509.75,506.25
526,1555413749.7266967,508.0,503.0,9.0,15.0,509.65,506.0
527,1555413749.809449,510.0,504.0,7.0,15.0,509.4,506.1
528,1555413749.879772,514.0,505.0,8.0,15.0,509.45,506.35
529,1555413749.955434,510.0,509.0,8.0,15.0,509.45,506.6
530,1555413750.0237823,505.0,513.0,9.0,15.0,509.25,506.9
531,1555413750.1071048,501.0,514.0,13.0,16.0,508.85,507.25
532,1555413750.1882918,509.0,516.0,13.0,18.0,509.0,507.4
533,1555413750.274751,513.0,507.0,13.0,18.0,509.35,507.1
534,1555413750.3410482,516.0,503.0,15.0,18.0,509.7,506.9
535,1555413750.4211023,516.0,505.0,15.0,18.0,509.95,506.7
536,1555413750.497942,508.0,509.0,15.0,17.0,509.8,507.25
537,1555413750.5744777,504.0,511.0,15.0,17.0,509.45,507.6
538,1555413750.649732,504.0,512.0,15.0,17.0,509.15,507.7
539,1555413750.740868,508.0,513.0,15.0,17.0,509.05,507.95
540,1555413750.8151994,511.0,511.0,15.0,17.0,509.25,507.9
541,1555413750.88817,512.0,510.0,15.0,17.0,509.5,507.9
542,1555413750.966815,513.0,499.0,15.0,17.0,509.55,507.6
543,1555413751.0415359,511.0,498.0,15.0,18.0,509.6,507.1
544,1555413751.120876,505.0,505.0,15.0,18.0,509.3,507.4
545,1555413751.1965752,506.0,507.0,15.0,18.0,509.2,507.7
546,1555413751.2726038,507.0,510.0,15.0,18.0,509.15,508.05
547,1555413751.3537402,513.0,508.0,15.0,18.0,509.3,508.25
548,1555413751.450949,514.0,509.0,15.0,18.0,509.3,508.45
549,1555413751.5185344,508.0,507.0,15.0,18.0,509.2,508.35
550,1555413751.5882316,501.0,511.0,15.0,18.0,509.0,508.25
551,1555413751.6624453,502.0,513.0,15.0,18.0,509.05,508.2
552,1555413751.735957,500.0,506.0,16.0,15.0,508.6,507.7
553,1555413751.8167253,518.0,505.0,18.0,15.0,508.85,507.6
554,1555413751.8837986,523.0,510.0,23.0,15.0,509.2,507.95
555,1555413751.9646025,521.0,510.0,23.0,15.0,509.45,508.2
556,1555413752.0395448,514.0,512.0,23.0,15.0,509.75,508.35
557,1555413752.109801,506.0,511.0,23.0,15.0,509.85,508.35
558,1555413752.1897352,500.0,513.0,23.0,15.0,509.65,508.4
559,1555413752.2596948,499.0,512.0,24.0,15.0,509.2,508.35
560,1555413752.3369431,508.0,510.0,24.0,15.0,509.05,508.3
561,1555413752.4108787,515.0,503.0,24.0,15.0,509.2,507.95
562,1555413752.4923992,522.0,497.0,24.0,16.0,509.65,507.85
563,1555413752.573814,515.0,496.0,24.0,17.0,509.85,507.75
564,1555413752.6418183,501.0,511.0,24.0,17.0,509.65,508.05
565,1555413752.715663,499.0,511.0,24.0,17.0,509.3,508.25
566,1555413752.7889628,501.0,512.0,24.0,17.0,509.0,508.35
567,1555413752.8670197,506.0,511.0,24.0,17.0,508.65,508.5
568,1555413752.9339485,512.0,514.0,24.0,18.0,508.55,508.75
569,1555413753.015435,515.0,513.0,24.0,18.0,508.9,509.05
570,1555413753.0990882,513.0,511.0,24.0,18.0,509.5,509.05
571,1555413753.181059,509.0,502.0,24.0,18.0,509.85,508.5
572,1555413753.2605126,506.0,507.0,24.0,18.0,510.15,508.55
573,1555413753.335343,504.0,517.0,24.0,21.0,509.45,509.15
574,1555413753.420593,507.0,516.0,23.0,21.0,508.65,509.45
575,1555413753.4988427,510.0,511.0,23.0,21.0,508.1,509.5
576,1555413753.5856876,514.0,513.0,23.0,21.0,508.1,509.55
577,1555413753.662727,512.0,508.0,23.0,21.0,508.4,509.4
578,1555413753.74015,507.0,508.0,23.0,21.0,508.75,509.15
579,1555413753.8121815,509.0,506.0,23.0,21.0,509.25,508.85
580,1555413753.8806107,510.0,506.0,23.0,21.0,509.35,508.65
581,1555413753.963917,511.0,502.0,23.0,21.0,509.15,508.6
582,1555413754.0589254,516.0,505.0,17.0,21.0,508.85,509.0
583,1555413754.1414216,513.0,504.0,17.0,15.0,508.75,509.4
584,1555413754.217022,510.0,506.0,17.0,15.0,509.2,509.15
585,1555413754.2913742,505.0,508.0,15.0,15.0,509.5,509.0
586,1555413754.3621664,499.0,514.0,17.0,15.0,509.4,509.1
587,1555413754.446003,495.0,514.0,21.0,15.0,508.85,509.25
588,1555413754.5209184,496.0,509.0,21.0,15.0,508.05,509.0
589,1555413754.589657,518.0,501.0,23.0,16.0,508.2,508.4
590,1555413754.6741467,518.0,503.0,23.0,16.0,508.45,508.0
591,1555413754.744612,517.0,509.0,23.0,16.0,508.85,508.35
592,1555413754.8246896,513.0,513.0,23.0,16.0,509.2,508.65
593,1555413754.8934884,505.0,516.0,23.0,15.0,509.25,508.6
594,1555413754.9630296,506.0,512.0,23.0,15.0,509.2,508.4
595,1555413755.0382886,508.0,510.0,23.0,15.0,509.1,508.35
596,1555413755.112753,511.0,517.0,23.0,16.0,508.95,508.55
597,1555413755.1859982,512.0,506.0,23.0,16.0,508.95,508.45
598,1555413755.2543159,510.0,495.0,23.0,22.0,509.1,507.8
599,1555413755.3350754,499.0,498.0,23.0,22.0,508.6,507.4
600,1555413755.4186552,498.0,503.0,23.0,22.0,508.0,507.25
601,1555413755.495322,503.0,503.0,23.0,22.0,507.6,507.3
602,1555413755.584956,507.0,507.0,23.0,22.0,507.15,507.4
603,1555413755.657819,511.0,514.0,23.0,22.0,507.05,507.9
604,1555413755.7305434,523.0,508.0,28.0,22.0,507.7,508.0
605,1555413755.8212051,523.0,505.0,28.0,22.0,508.6,507.85
606,1555413755.8887386,517.0,506.0,28.0,22.0,509.5,507.45
607,1555413755.9705706,497.0,513.0,27.0,22.0,509.6,507.4
608,1555413756.0467489,496.0,533.0,27.0,38.0,509.6,508.6
609,1555413756.1216273,498.0,527.0,27.0,38.0,508.6,509.9
610,1555413756.1982582,504.0,519.0,27.0,38.0,507.9,510.7
611,1555413756.2879624,511.0,510.0,27.0,38.0,507.6,510.75
612,1555413756.3564553,510.0,506.0,27.0,38.0,507.45,510.4
613,1555413756.4249434,509.0,513.0,27.0,38.0,507.65,510.25
614,1555413756.5134923,508.0,511.0,27.0,38.0,507.75,510.2
615,1555413756.593362,511.0,501.0,27.0,38.0,507.9,509.75
616,1555413756.6780913,515.0,505.0,27.0,38.0,508.1,509.15
617,1555413756.7651987,520.0,503.0,27.0,38.0,508.5,509.0
618,1555413756.8397593,514.0,510.0,27.0,35.0,508.7,509.75
619,1555413756.9246309,504.0,507.0,27.0,32.0,508.95,510.2
620,1555413757.0046082,496.0,512.0,27.0,32.0,508.85,510.65
621,1555413757.079474,494.0,513.0,29.0,32.0,508.4,511.15
622,1555413757.154128,496.0,516.0,29.0,32.0,507.85,511.6
623,1555413757.2340994,501.0,511.0,29.0,32.0,507.35,511.45
624,1555413757.3117425,513.0,505.0,29.0,32.0,506.85,511.3
625,1555413757.3806756,516.0,507.0,26.0,32.0,506.5,511.4
626,1555413757.468917,517.0,508.0,26.0,32.0,506.5,511.5
627,1555413757.5425575,516.0,513.0,26.0,32.0,507.45,511.5
628,1555413757.6315606,509.0,515.0,26.0,26.0,508.1,510.6
629,1555413757.7133172,509.0,515.0,26.0,18.0,508.65,510.0
630,1555413757.7896686,506.0,514.0,26.0,15.0,508.75,509.75
631,1555413757.8644588,506.0,511.0,26.0,15.0,508.5,509.8
632,1555413757.9319222,508.0,507.0,26.0,15.0,508.4,509.85
633,1555413757.999008,505.0,506.0,26.0,15.0,508.2,509.5
634,1555413758.0758312,506.0,501.0,26.0,15.0,508.1,509.0
635,1555413758.1525912,501.0,500.0,26.0,16.0,507.6,508.95
636,1555413758.2548056,509.0,506.0,26.0,16.0,507.3,509.0
637,1555413758.3299642,513.0,513.0,23.0,16.0,506.95,509.5
638,1555413758.4146478,510.0,512.0,23.0,16.0,506.75,509.6
639,1555413758.5014439,511.0,510.0,23.0,16.0,507.1,509.75
640,1555413758.5693417,511.0,512.0,23.0,16.0,507.85,509.75
641,1555413758.6404836,513.0,511.0,21.0,16.0,508.8,509.65
642,1555413758.717144,516.0,507.0,16.0,15.0,509.8,509.2
643,1555413758.7905757,516.0,508.0,16.0,15.0,510.55,509.05
644,1555413758.8674092,506.0,508.0,16.0,15.0,510.2,509.2
645,1555413758.9478745,501.0,506.0,16.0,15.0,509.45,509.15
646,1555413759.0195932,502.0,510.0,15.0,15.0,508.7,509.25
647,1555413759.0986922,504.0,518.0,15.0,18.0,508.1,509.5
648,1555413759.1837063,512.0,516.0,15.0,18.0,508.25,509.55
649,1555413759.2742753,512.0,512.0,15.0,18.0,508.4,509.4
650,1555413759.3467116,513.0,503.0,15.0,18.0,508.75,508.85
651,1555413759.4385164,520.0,502.0,19.0,18.0,509.45,508.4
652,1555413759.517148,509.0,505.0,19.0,18.0,509.5,508.3
653,1555413759.5913618,509.0,505.0,19.0,18.0,509.7,508.25
654,1555413759.6748364,496.0,612.0,24.0,112.0,509.2,513.8
655,1555413759.7514908,504.0,608.0,24.0,110.0,509.35,519.2
656,1555413759.8336072,546.0,601.0,50.0,110.0,511.2,523.95
657,1555413759.905161,592.0,599.0,96.0,110.0,515.15,528.25
658,1555413759.9984663,594.0,590.0,98.0,110.0,519.35,532.15
659,1555413760.0903766,510.0,598.0,98.0,110.0,519.3,536.55
660,1555413760.16555,490.0,598.0,104.0,110.0,518.25,540.85
661,1555413760.2440941,485.0,589.0,109.0,110.0,516.85,544.75
662,1555413760.3159556,496.0,612.0,109.0,110.0,515.85,550.0
663,1555413760.3879716,504.0,608.0,109.0,110.0,515.25,555.0
664,1555413760.4614956,546.0,601.0,109.0,110.0,517.25,559.65
665,1555413760.5410583,592.0,599.0,109.0,110.0,521.8,564.3
666,1555413760.6156216,594.0,590.0,109.0,110.0,526.4,568.3
667,1555413760.6945915,510.0,598.0,109.0,110.0,526.7,572.3
668,1555413760.7647343,490.0,598.0,109.0,110.0,525.6,576.4
669,1555413760.8429174,485.0,589.0,109.0,110.0,524.25,580.25
670,1555413760.9128122,496.0,612.0,109.0,110.0,523.4,585.7
671,1555413760.9888897,504.0,608.0,109.0,107.0,522.6,591.0
672,1555413761.0602326,546.0,601.0,109.0,107.0,524.45,595.8
673,1555413761.1312544,592.0,599.0,109.0,23.0,528.6,600.5
674,1555413761.2009242,594.0,590.0,109.0,23.0,533.5,599.4
675,1555413761.2842417,537.0,564.0,109.0,48.0,535.15,597.2
676,1555413761.358688,482.0,509.0,112.0,103.0,531.95,592.6
677,1555413761.4374971,438.0,463.0,156.0,149.0,524.25,585.8
678,1555413761.515763,457.0,450.0,156.0,162.0,517.4,578.8
679,1555413761.6075528,489.0,456.0,156.0,162.0,516.35,571.7
680,1555413761.6783102,496.0,446.0,156.0,166.0,516.65,564.1
681,1555413761.7762446,519.0,437.0,156.0,175.0,518.35,556.5
682,1555413761.849129,524.0,439.0,156.0,175.0,519.75,547.85
683,1555413761.9249382,554.0,453.0,156.0,175.0,522.25,540.1
684,1555413761.9989846,551.0,494.0,156.0,175.0,522.5,534.75
685,1555413762.0709515,532.0,519.0,156.0,175.0,519.5,530.75
686,1555413762.142256,523.0,521.0,156.0,175.0,515.95,527.3
687,1555413762.213083,519.0,509.0,156.0,175.0,516.4,522.85
688,1555413762.2853131,502.0,507.0,156.0,175.0,517.0,518.3
689,1555413762.3622582,502.0,512.0,156.0,175.0,517.85,514.45
690,1555413762.43804,515.0,524.0,156.0,171.0,518.8,510.05
691,1555413762.5079224,495.0,521.0,156.0,164.0,518.35,505.7
692,1555413762.5793052,485.0,517.0,156.0,162.0,515.3,501.5
693,1555413762.6500225,494.0,516.0,156.0,153.0,510.4,497.35
694,1555413762.7224717,490.0,526.0,116.0,127.0,505.2,494.15
695,1555413762.7961311,503.0,535.0,116.0,98.0,503.5,492.7
696,1555413762.8638349,507.0,526.0,116.0,98.0,504.75,493.55
697,1555413762.938301,501.0,521.0,97.0,98.0,507.9,496.45
698,1555413763.0093298,514.0,516.0,69.0,98.0,510.75,499.75
699,1555413763.0911283,525.0,515.0,69.0,98.0,512.55,502.7
700,1555413763.1710591,528.0,518.0,69.0,98.0,514.15,506.3
701,1555413763.2454417,530.0,519.0,69.0,96.0,514.7,510.4
702,1555413763.314852,524.0,510.0,69.0,82.0,514.7,513.95
703,1555413763.3943214,522.0,496.0,66.0,41.0,513.1,516.1
704,1555413763.4664822,488.0,470.0,47.0,65.0,509.95,514.9
705,1555413763.5503721,471.0,489.0,59.0,65.0,506.9,513.4
706,1555413763.6288393,478.0,498.0,59.0,65.0,504.65,512.25
707,1555413763.7067795,486.0,498.0,59.0,65.0,503.0,511.7
708,1555413763.7927003,501.0,496.0,59.0,65.0,502.95,511.15
709,1555413763.8742075,525.0,503.0,59.0,65.0,504.1,510.7
710,1555413763.9566066,549.0,527.0,78.0,65.0,505.8,510.85
711,1555413764.037279,532.0,529.0,78.0,65.0,507.65,511.25
712,1555413764.1118968,508.0,522.0,78.0,65.0,508.8,511.5
713,1555413764.1791494,493.0,488.0,78.0,65.0,508.75,510.1
714,1555413764.2601817,512.0,486.0,78.0,65.0,509.85,508.1
715,1555413764.3443947,532.0,500.0,78.0,59.0,511.3,506.35
716,1555413764.4230933,535.0,511.0,78.0,59.0,512.7,505.6
717,1555413764.4978585,484.0,493.0,78.0,59.0,511.85,504.2
718,1555413764.5781093,470.0,483.0,79.0,59.0,509.65,502.55
719,1555413764.6581726,476.0,488.0,79.0,59.0,507.2,501.2
720,1555413764.7482553,520.0,519.0,79.0,59.0,506.8,501.25
721,1555413764.8160512,539.0,521.0,79.0,59.0,507.25,501.35
722,1555413764.885457,535.0,510.0,79.0,59.0,507.8,501.35
723,1555413764.9602923,526.0,507.0,79.0,59.0,508.0,501.9
724,1555413765.0470848,488.0,529.0,79.0,46.0,508.0,504.85
725,1555413765.1254346,478.0,542.0,79.0,59.0,508.35,507.5
726,1555413765.207177,498.0,535.0,79.0,59.0,509.35,509.35
727,1555413765.2920403,517.0,513.0,79.0,59.0,510.9,510.1
728,1555413765.3744457,535.0,496.0,79.0,59.0,512.6,510.1
729,1555413765.4481852,521.0,504.0,79.0,59.0,512.4,510.15
730,1555413765.5225232,509.0,517.0,69.0,59.0,510.4,509.65
731,1555413765.5998604,512.0,549.0,69.0,66.0,509.4,510.65
732,1555413765.6823945,545.0,609.0,75.0,126.0,511.25,515.0
733,1555413765.7534885,552.0,586.0,82.0,126.0,514.2,519.9
734,1555413765.831963,518.0,554.0,82.0,126.0,514.5,523.3
735,1555413765.8980134,472.0,504.0,82.0,126.0,511.5,523.5
736,1555413765.9742303,462.0,458.0,90.0,151.0,507.85,520.85
737,1555413766.043927,435.0,443.0,117.0,166.0,505.4,518.35
738,1555413766.12217,439.0,455.0,117.0,166.0,503.85,516.95
739,1555413766.1952415,522.0,458.0,117.0,166.0,506.15,515.45
740,1555413766.2734275,544.0,483.0,117.0,166.0,507.35,513.65
741,1555413766.3478653,553.0,500.0,118.0,166.0,508.05,512.6
742,1555413766.4192748,556.0,506.0,121.0,166.0,509.1,512.4
743,1555413766.4989612,536.0,507.0,121.0,166.0,509.6,512.4
744,1555413766.5745633,531.0,529.0,121.0,166.0,511.75,512.4
745,1555413766.6516924,511.0,519.0,121.0,166.0,513.4,511.25
746,1555413766.7189527,506.0,501.0,121.0,166.0,513.8,509.55
747,1555413766.8028674,507.0,487.0,121.0,166.0,513.3,508.25
748,1555413766.8841734,487.0,485.0,121.0,166.0,510.9,507.7
749,1555413766.9715023,463.0,480.0,121.0,166.0,508.0,506.5
750,1555413767.0495133,464.0,482.0,121.0,166.0,505.75,504.75
751,1555413767.1219668,488.0,487.0,121.0,166.0,504.55,501.65
752,1555413767.192959,518.0,498.0,121.0,143.0,503.2,496.1
753,1555413767.276122,540.0,520.0,121.0,111.0,502.6,492.8
754,1555413767.3625376,552.0,522.0,121.0,86.0,504.3,491.2
755,1555413767.4318721,567.0,536.0,132.0,93.0,509.05,492.8
756,1555413767.4979644,562.0,530.0,132.0,93.0,514.05,496.4
757,1555413767.587876,533.0,509.0,128.0,81.0,518.95,499.7
758,1555413767.656825,513.0,511.0,104.0,78.0,522.65,502.5
759,1555413767.7315521,505.0,508.0,104.0,56.0,521.8,505.0
760,1555413767.8061485,493.0,508.0,104.0,56.0,519.25,506.25
761,1555413767.8796196,472.0,497.0,104.0,56.0,515.2,506.1
762,1555413767.953369,455.0,488.0,112.0,56.0,510.15,505.2
763,1555413768.0281837,458.0,485.0,112.0,56.0,506.25,504.1
764,1555413768.102643,481.0,492.0,112.0,56.0,503.75,502.25
765,1555413768.1792696,527.0,513.0,112.0,56.0,504.55,501.95
766,1555413768.2599244,543.0,511.0,112.0,56.0,506.4,502.45
767,1555413768.3342779,550.0,499.0,112.0,56.0,508.55,503.05
768,1555413768.4015412,557.0,494.0,112.0,56.0,512.05,503.5
769,1555413768.4740975,545.0,489.0,112.0,54.0,516.15,503.95
770,1555413768.5577443,530.0,484.0,112.0,52.0,519.45,504.05
771,1555413768.636715,504.0,497.0,112.0,52.0,520.25,504.55
772,1555413768.7063315,488.0,484.0,112.0,52.0,518.75,503.85
773,1555413768.7816498,480.0,482.0,112.0,54.0,515.75,501.95
774,1555413768.853814,483.0,492.0,112.0,54.0,512.3,500.45
775,1555413768.9297206,488.0,492.0,107.0,48.0,508.35,498.25
776,1555413769.0111222,502.0,487.0,102.0,31.0,505.35,496.1
777,1555413769.1213038,513.0,481.0,102.0,32.0,504.35,494.7
778,1555413769.1943321,524.0,487.0,102.0,32.0,504.9,493.5
779,1555413769.2701867,538.0,498.0,102.0,32.0,506.55,493.0
780,1555413769.349258,541.0,505.0,102.0,32.0,508.95,492.85
781,1555413769.4260945,533.0,512.0,102.0,32.0,512.0,493.6
782,1555413769.500949,520.0,514.0,99.0,33.0,515.25,494.9
783,1555413769.588152,501.0,494.0,77.0,33.0,517.4,495.35
784,1555413769.6691718,494.0,496.0,77.0,33.0,518.05,495.55
785,1555413769.7435763,497.0,479.0,77.0,35.0,516.55,493.85
786,1555413769.8136084,505.0,479.0,77.0,35.0,514.65,492.25
787,1555413769.8990777,509.0,480.0,77.0,35.0,512.6,491.3
788,1555413769.9844534,509.0,492.0,65.0,35.0,510.2,491.2
789,1555413770.0640917,507.0,505.0,61.0,35.0,508.3,492.0
790,1555413770.1320364,503.0,513.0,61.0,35.0,506.95,493.45
791,1555413770.199445,508.0,512.0,61.0,35.0,507.15,494.2
792,1555413770.281485,515.0,515.0,61.0,36.0,508.5,495.75
793,1555413770.3632941,524.0,513.0,58.0,36.0,510.7,497.3
794,1555413770.4352973,519.0,505.0,53.0,36.0,512.5,497.95
795,1555413770.5070434,513.0,501.0,47.0,36.0,513.75,498.4
796,1555413770.579102,502.0,501.0,47.0,36.0,513.75,499.1
797,1555413770.6540341,491.0,505.0,50.0,36.0,512.65,500.3
798,1555413770.7206402,487.0,508.0,54.0,36.0,510.8,501.35
799,1555413770.8024173,497.0,513.0,54.0,36.0,508.75,502.1
800,1555413770.8903036,515.0,518.0,46.0,39.0,507.45,502.75
801,1555413770.9632545,522.0,518.0,37.0,39.0,506.9,503.05
802,1555413771.0533679,517.0,512.0,37.0,39.0,506.75,502.95
803,1555413771.1281307,512.0,518.0,37.0,39.0,507.3,504.15
804,1555413771.2148113,505.0,511.0,37.0,39.0,507.85,504.9
805,1555413771.2926502,507.0,505.0,37.0,39.0,508.35,506.2
806,1555413771.3721614,511.0,513.0,37.0,38.0,508.65,507.9
807,1555413771.4453511,513.0,509.0,37.0,26.0,508.85,509.35
808,1555413771.5158386,516.0,509.0,37.0,17.0,509.2,510.2
809,1555413771.6342244,507.0,513.0,37.0,17.0,509.2,510.6
810,1555413771.7125924,495.0,515.0,37.0,17.0,508.8,510.7
811,1555413771.7879953,488.0,512.0,37.0,17.0,507.8,510.7
812,1555413771.856833,493.0,514.0,37.0,17.0,506.7,510.65
813,1555413771.9286454,508.0,519.0,35.0,18.0,505.9,510.95
814,1555413772.0005946,517.0,522.0,35.0,21.0,505.8,511.8
815,1555413772.0791473,524.0,510.0,37.0,21.0,506.35,512.25
816,1555413772.156543,523.0,511.0,37.0,17.0,507.4,512.75
817,1555413772.2301786,518.0,517.0,37.0,17.0,508.75,513.35
818,1555413772.3140876,509.0,527.0,36.0,22.0,509.85,514.3
819,1555413772.388925,507.0,534.0,36.0,29.0,510.35,515.35
820,1555413772.4674618,507.0,518.0,36.0,29.0,509.95,515.35
821,1555413772.5440195,503.0,509.0,36.0,29.0,509.0,514.9
822,1555413772.6202943,498.0,508.0,36.0,29.0,508.05,514.7
823,1555413772.7057908,506.0,493.0,36.0,41.0,507.75,513.45
824,1555413772.7775493,516.0,505.0,36.0,41.0,508.3,513.15
825,1555413772.858014,522.0,513.0,36.0,41.0,509.05,513.55
826,1555413772.928971,516.0,514.0,36.0,41.0,509.3,513.6
827,1555413773.0089982,513.0,510.0,36.0,41.0,509.3,513.65
828,1555413773.1096277,515.0,508.0,36.0,41.0,509.25,513.6
829,1555413773.1865034,511.0,514.0,36.0,41.0,509.45,513.65
830,1555413773.2567334,506.0,516.0,36.0,41.0,510.0,513.7
831,1555413773.3276575,505.0,513.0,31.0,41.0,510.85,513.75
832,1555413773.4115195,504.0,510.0,26.0,41.0,511.4,513.55
833,1555413773.4903178,505.0,507.0,26.0,41.0,511.25,512.95
834,1555413773.5587611,505.0,509.0,26.0,41.0,510.65,512.3
835,1555413773.6363215,506.0,507.0,25.0,41.0,509.75,512.15
836,1555413773.7170851,506.0,507.0,24.0,41.0,508.9,511.95
837,1555413773.7957501,511.0,504.0,24.0,41.0,508.55,511.3
838,1555413773.8643641,511.0,508.0,24.0,41.0,508.65,510.35
839,1555413773.9358253,513.0,516.0,24.0,25.0,508.95,509.45
840,1555413774.0117054,512.0,518.0,24.0,25.0,509.2,509.45
841,1555413774.0842068,514.0,521.0,24.0,28.0,509.75,510.05
842,1555413774.155596,511.0,512.0,18.0,28.0,510.4,510.25
843,1555413774.236809,506.0,505.0,18.0,17.0,510.4,510.85
844,1555413774.3043327,502.0,501.0,20.0,20.0,509.7,510.65
845,1555413774.3852694,508.0,499.0,14.0,22.0,509.0,509.95
846,1555413774.4770095,510.0,510.0,13.0,22.0,508.7,509.75
847,1555413774.5458453,507.0,515.0,13.0,22.0,508.4,510.0
848,1555413774.6250188,507.0,508.0,12.0,22.0,508.0,510.0
849,1555413774.7088194,507.0,506.0,12.0,22.0,507.8,509.6
850,1555413774.7800944,507.0,511.0,12.0,22.0,507.85,509.35
851,1555413774.847386,504.0,514.0,12.0,22.0,507.8,509.4
852,1555413774.9238875,508.0,519.0,12.0,22.0,508.0,509.85
853,1555413774.999376,510.0,513.0,12.0,22.0,508.25,510.15
854,1555413775.0725422,517.0,507.0,15.0,22.0,508.85,510.05
855,1555413775.1513352,518.0,506.0,16.0,22.0,509.45,510.0
856,1555413775.2277586,514.0,506.0,16.0,22.0,509.85,509.95
857,1555413775.3076591,507.0,509.0,16.0,22.0,509.65,510.2
858,1555413775.383128,506.0,508.0,16.0,22.0,509.4,510.2
859,1555413775.4768999,505.0,512.0,16.0,22.0,509.0,510.0
860,1555413775.553581,504.0,514.0,16.0,22.0,508.6,509.8
861,1555413775.6271229,505.0,509.0,16.0,20.0,508.15,509.2
862,1555413775.6965916,506.0,510.0,16.0,20.0,507.9,509.1
863,1555413775.7663958,513.0,505.0,16.0,20.0,508.25,509.1
864,1555413775.8480654,512.0,504.0,14.0,20.0,508.75,509.25
865,1555413775.9299846,515.0,506.0,14.0,15.0,509.1,509.6
866,1555413775.9976668,515.0,509.0,14.0,15.0,509.35,509.55
867,1555413776.0654047,512.0,510.0,14.0,15.0,509.6,509.3
868,1555413776.1513011,508.0,514.0,14.0,15.0,509.65,509.6
869,1555413776.2361615,505.0,514.0,14.0,15.0,509.55,510.0
870,1555413776.3122501,503.0,512.0,15.0,15.0,509.35,510.05
871,1555413776.386443,505.0,515.0,15.0,15.0,509.4,510.1
872,1555413776.4687548,505.0,511.0,15.0,11.0,509.25,509.7
873,1555413776.5380409,509.0,510.0,15.0,11.0,509.2,509.55
874,1555413776.6167352,513.0,512.0,15.0,11.0,509.0,509.8
875,1555413776.7015433,511.0,512.0,12.0,11.0,508.65,510.1
876,1555413776.7790303,511.0,518.0,12.0,14.0,508.5,510.7
877,1555413776.88099,509.0,512.0,12.0,14.0,508.6,510.85
878,1555413776.9525266,509.0,514.0,12.0,14.0,508.75,511.15
879,1555413777.020496,510.0,516.0,12.0,14.0,509.0,511.35
880,1555413777.0951908,508.0,511.0,12.0,14.0,509.2,511.2
881,1555413777.1693766,506.0,511.0,12.0,14.0,509.25,511.3
882,1555413777.2427294,510.0,506.0,12.0,14.0,509.45,511.1
883,1555413777.31673,509.0,503.0,12.0,15.0,509.25,511.0
884,1555413777.389985,511.0,500.0,12.0,18.0,509.2,510.8
885,1555413777.4600966,516.0,496.0,13.0,22.0,509.25,510.3
886,1555413777.5394897,508.0,508.0,13.0,22.0,508.9,510.25
887,1555413777.6180081,503.0,512.0,13.0,22.0,508.45,510.35
888,1555413777.6915228,502.0,515.0,14.0,22.0,508.15,510.4
889,1555413777.7581599,509.0,517.0,14.0,22.0,508.35,510.55
890,1555413777.847659,516.0,519.0,14.0,23.0,509.0,510.9
891,1555413777.9306483,513.0,513.0,14.0,23.0,509.4,510.8
892,1555413778.006415,509.0,506.0,14.0,23.0,509.6,510.55
893,1555413778.0889533,505.0,503.0,14.0,23.0,509.4,510.2
894,1555413778.176849,503.0,507.0,14.0,23.0,508.9,509.95
895,1555413778.2457376,502.0,510.0,14.0,23.0,508.45,509.85
896,1555413778.3343713,509.0,512.0,14.0,23.0,508.35,509.55
897,1555413778.4167922,510.0,510.0,14.0,23.0,508.4,509.45
898,1555413778.5066152,512.0,511.0,14.0,23.0,508.55,509.3
899,1555413778.5796022,510.0,514.0,14.0,23.0,508.55,509.2
900,1555413778.6514006,514.0,509.0,14.0,23.0,508.85,509.1
901,1555413778.727286,514.0,505.0,14.0,23.0,509.25,508.8
902,1555413778.8133557,511.0,503.0,14.0,23.0,509.3,508.65
903,1555413778.9003043,509.0,504.0,14.0,23.0,509.3,508.7
904,1555413778.991941,507.0,503.0,14.0,23.0,509.1,508.85
905,1555413779.0783045,505.0,519.0,14.0,16.0,508.55,510.0
906,1555413779.1536627,509.0,522.0,14.0,19.0,508.6,510.7
907,1555413779.235914,513.0,513.0,14.0,19.0,509.1,510.75
908,1555413779.326477,513.0,514.0,14.0,19.0,509.65,510.7
909,1555413779.3960645,511.0,507.0,14.0,19.0,509.75,510.2
910,1555413779.4717424,510.0,508.0,12.0,19.0,509.45,509.65
911,1555413779.5457377,507.0,512.0,12.0,19.0,509.15,509.6
912,1555413779.6317797,506.0,512.0,12.0,19.0,509.0,509.9
913,1555413779.7064219,510.0,514.0,12.0,19.0,509.25,510.45
914,1555413779.788339,512.0,520.0,12.0,19.0,509.7,511.1
915,1555413779.8618279,509.0,510.0,9.0,19.0,510.05,511.1
916,1555413779.939917,507.0,505.0,9.0,19.0,509.95,510.75
917,1555413780.0180209,504.0,501.0,10.0,21.0,509.65,510.3
918,1555413780.0947201,510.0,504.0,10.0,21.0,509.55,509.95
919,1555413780.1814115,515.0,501.0,11.0,21.0,509.8,509.3
920,1555413780.2508981,515.0,500.0,11.0,22.0,509.85,508.85
921,1555413780.332974,508.0,499.0,11.0,23.0,509.55,508.55
922,1555413780.4076188,498.0,500.0,17.0,23.0,508.9,508.4
923,1555413780.4773371,497.0,505.0,18.0,23.0,508.3,508.45
924,1555413780.56853,511.0,519.0,18.0,23.0,508.5,509.25
925,1555413780.6419787,520.0,526.0,23.0,27.0,509.25,509.6
926,1555413780.711331,520.0,522.0,23.0,27.0,509.8,509.6
927,1555413780.7910404,514.0,505.0,23.0,27.0,509.85,509.2
928,1555413780.860062,510.0,499.0,23.0,27.0,509.7,508.45
929,1555413780.9392498,503.0,500.0,23.0,27.0,509.3,508.1
930,1555413781.014171,502.0,504.0,23.0,27.0,508.9,507.9
931,1555413781.1003532,500.0,508.0,23.0,27.0,508.55,507.7
932,1555413781.1819904,502.0,513.0,23.0,27.0,508.35,507.75
933,1555413781.2481267,501.0,513.0,23.0,27.0,507.9,507.7
934,1555413781.3410347,509.0,513.0,23.0,27.0,507.75,507.35
935,1555413781.419973,518.0,507.0,23.0,27.0,508.2,507.2
936,1555413781.4916003,516.0,511.0,23.0,27.0,508.65,507.5
937,1555413781.5681777,512.0,504.0,23.0,27.0,509.05,507.65
938,1555413781.6423638,511.0,495.0,23.0,31.0,509.1,507.2
939,1555413781.7466824,504.0,505.0,23.0,31.0,508.55,507.4
940,1555413781.825362,507.0,508.0,23.0,31.0,508.15,507.8
941,1555413781.9025059,507.0,507.0,23.0,31.0,508.1,508.2
942,1555413781.9989655,507.0,507.0,23.0,31.0,508.55,508.55
943,1555413782.078746,506.0,511.0,20.0,31.0,509.0,508.85
944,1555413782.151833,507.0,512.0,20.0,31.0,508.8,508.5
945,1555413782.2362955,508.0,517.0,20.0,27.0,508.2,508.05
946,1555413782.3176248,508.0,505.0,18.0,22.0,507.6,507.2
947,1555413782.3934765,513.0,502.0,18.0,22.0,507.55,507.05
948,1555413782.4800198,515.0,503.0,18.0,22.0,507.8,507.25
949,1555413782.5683732,519.0,517.0,19.0,22.0,508.6,508.1
950,1555413782.646228,514.0,513.0,19.0,22.0,509.2,508.55
951,1555413782.7133923,508.0,512.0,18.0,22.0,509.6,508.75
952,1555413782.787682,504.0,512.0,18.0,22.0,509.7,508.7
953,1555413782.8674326,500.0,510.0,19.0,22.0,509.65,508.55
954,1555413782.9530404,506.0,506.0,19.0,22.0,509.5,508.2
955,1555413783.037892,512.0,500.0,19.0,22.0,509.2,507.85
956,1555413783.117966,517.0,503.0,19.0,22.0,509.25,507.45
957,1555413783.1992073,515.0,506.0,19.0,22.0,509.4,507.55
958,1555413783.2904563,515.0,510.0,19.0,17.0,509.6,508.3
959,1555413783.3580966,514.0,513.0,19.0,17.0,510.1,508.7
960,1555413783.426415,509.0,515.0,19.0,17.0,510.2,509.05
961,1555413783.506049,504.0,516.0,19.0,17.0,510.05,509.5
962,1555413783.582764,503.0,514.0,19.0,17.0,509.85,509.85
963,1555413783.668519,499.0,514.0,20.0,17.0,509.5,510.0
964,1555413783.7454152,510.0,508.0,20.0,17.0,509.65,509.8
965,1555413783.8353586,512.0,508.0,20.0,17.0,509.85,509.35
966,1555413783.9089797,512.0,508.0,20.0,17.0,510.05,509.5
967,1555413783.9834363,510.0,511.0,20.0,17.0,509.9,509.95
968,1555413784.0489485,510.0,511.0,20.0,17.0,509.65,510.35
969,1555413784.1408024,509.0,509.0,18.0,16.0,509.15,509.95
970,1555413784.2186809,510.0,505.0,18.0,16.0,508.95,509.55
971,1555413784.2905018,510.0,502.0,18.0,16.0,509.05,509.05
972,1555413784.3872788,510.0,509.0,18.0,16.0,509.35,508.9
973,1555413784.4603887,510.0,512.0,18.0,16.0,509.85,509.0
974,1555413784.5404637,510.0,511.0,18.0,16.0,510.05,509.25
975,1555413784.6240287,505.0,505.0,18.0,14.0,509.7,509.5
976,1555413784.702513,504.0,498.0,16.0,18.0,509.05,509.25
977,1555413784.790634,514.0,495.0,16.0,21.0,509.0,508.7
978,1555413784.8715453,515.0,495.0,16.0,21.0,509.0,507.95
979,1555413784.9394443,515.0,496.0,16.0,21.0,509.05,507.1
980,1555413785.0134296,511.0,495.0,16.0,21.0,509.15,506.1
981,1555413785.0832093,512.0,504.0,16.0,19.0,509.55,505.5
982,1555413785.166252,509.0,505.0,16.0,19.0,509.85,505.05
983,1555413785.2366698,505.0,507.0,11.0,17.0,510.15,504.7
984,1555413785.303981,506.0,507.0,11.0,17.0,509.95,504.65
985,1555413785.3792105,507.0,503.0,11.0,17.0,509.7,504.4
986,1555413785.4527988,509.0,505.0,11.0,17.0,509.55,504.25
987,1555413785.5262415,509.0,506.0,11.0,17.0,509.5,504.0
988,1555413785.6117568,509.0,500.0,11.0,17.0,509.45,503.45
989,1555413785.6867874,510.0,508.0,11.0,17.0,509.5,503.4
990,1555413785.7684655,506.0,508.0,11.0,17.0,509.3,503.55
991,1555413785.8467,499.0,518.0,16.0,23.0,508.75,504.35
992,1555413785.9279964,501.0,521.0,16.0,26.0,508.3,504.95
993,1555413786.013193,507.0,525.0,16.0,30.0,508.15,505.6
994,1555413786.1043282,511.0,521.0,16.0,30.0,508.2,506.1
995,1555413786.17511,510.0,508.0,16.0,30.0,508.45,506.25
996,1555413786.2447789,511.0,499.0,16.0,30.0,508.8,506.3
997,1555413786.3299513,513.0,499.0,16.0,30.0,508.75,506.5
998,1555413786.405271,511.0,502.0,16.0,30.0,508.55,506.85
999,1555413786.4761734,507.0,508.0,14.0,30.0,508.15,507.45
1000,1555413786.5455902,504.0,513.0,14.0,26.0,507.8,508.35
1001,1555413786.6173754,505.0,514.0,14.0,26.0,507.45,508.85
1002,1555413786.6919332,504.0,514.0,14.0,26.0,507.2,509.3
1003,1555413786.7788093,503.0,522.0,14.0,26.0,507.1,510.05
1004,1555413786.8601866,504.0,518.0,14.0,26.0,507.0,510.6
1005,1555413786.947737,500.0,516.0,14.0,26.0,506.65,511.25
1006,1555413787.0317385,499.0,511.0,14.0,26.0,506.15,511.55
1007,1555413787.1144354,499.0,509.0,14.0,26.0,505.65,511.7
1008,1555413787.1941228,501.0,504.0,14.0,26.0,505.25,511.9
1009,1555413787.275379,504.0,505.0,14.0,26.0,504.95,511.75
1010,1555413787.3488803,502.0,496.0,14.0,29.0,504.75,511.15
1011,1555413787.4276261,500.0,504.0,14.0,29.0,504.8,510.45
1012,1555413787.5187314,509.0,518.0,14.0,29.0,505.2,510.3
1013,1555413787.6024618,502.0,531.0,14.0,35.0,504.95,510.6
1014,1555413787.6901376,503.0,527.0,14.0,35.0,504.55,510.9
1015,1555413787.7633674,511.0,525.0,14.0,35.0,504.6,511.75
1016,1555413787.831122,516.0,523.0,17.0,35.0,504.85,512.95
1017,1555413787.9014945,521.0,511.0,22.0,35.0,505.25,513.55
1018,1555413787.9737303,518.0,519.0,22.0,35.0,505.6,514.4
1019,1555413788.041075,511.0,531.0,22.0,35.0,505.8,515.55
1020,1555413788.106974,506.0,538.0,22.0,42.0,505.9,516.8
1021,1555413788.1756673,507.0,539.0,22.0,43.0,506.0,518.05
1022,1555413788.260562,515.0,529.0,22.0,43.0,506.55,518.8
1023,1555413788.333278,526.0,505.0,27.0,43.0,507.7,517.95
1024,1555413788.4166772,520.0,495.0,27.0,44.0,508.5,516.8
1025,1555413788.487194,521.0,503.0,27.0,44.0,509.55,516.15
1026,1555413788.5616105,522.0,505.0,27.0,44.0,510.7,515.85
1027,1555413788.630781,519.0,518.0,26.0,44.0,511.7,516.3
1028,1555413788.699599,513.0,530.0,26.0,44.0,512.3,517.6
1029,1555413788.7732747,508.0,531.0,26.0,44.0,512.5,518.9
1030,1555413788.8471549,501.0,529.0,26.0,44.0,512.45,520.55
1031,1555413788.9264748,504.0,525.0,25.0,44.0,512.65,521.6
1032,1555413789.0025027,504.0,517.0,25.0,44.0,512.4,521.55
1033,1555413789.076433,511.0,505.0,25.0,44.0,512.85,520.25
1034,1555413789.1464279,514.0,505.0,25.0,44.0,513.4,519.15
1035,1555413789.2255363,512.0,510.0,25.0,44.0,513.45,518.4
1036,1555413789.304067,508.0,508.0,25.0,44.0,513.05,517.65
1037,1555413789.3745177,499.0,503.0,27.0,44.0,511.95,517.25
1038,1555413789.4635942,484.0,501.0,42.0,44.0,510.25,516.35
1039,1555413789.540276,488.0,506.0,42.0,44.0,509.1,515.1
1040,1555413789.6096544,492.0,508.0,42.0,44.0,508.4,513.6
1041,1555413789.694163,497.0,506.0,42.0,36.0,507.9,511.95
1042,1555413789.7805936,506.0,497.0,42.0,36.0,507.45,510.35
1043,1555413789.8541403,502.0,502.0,38.0,36.0,506.25,510.2
1044,1555413789.9332452,496.0,507.0,38.0,34.0,505.05,510.8
1045,1555413790.020989,507.0,508.0,38.0,34.0,504.35,511.05
1046,1555413790.101901,518.0,499.0,35.0,34.0,504.15,510.75
