,emg_med_0,emg_med_1,emg_med_2,emg_0,emg_1,emg_2,emg_min_0,emg_min_1,emg_min_2,emg_ampl_0,emg_ampl_1,emg_ampl_2,emg_max_0,emg_max_1,emg_max_2,emg_prev_0_0,emg_prev_0_1,emg_prev_0_2,emg_prev_0_3,emg_prev_0_4,emg_prev_0_5,emg_prev_0_6,emg_prev_0_7,emg_prev_0_8,emg_prev_0_9,emg_prev_0_10,emg_prev_0_11,emg_prev_0_12,emg_prev_0_13,emg_prev_0_14,emg_prev_0_15,emg_prev_0_16,emg_prev_0_17,emg_prev_0_18,emg_prev_0_19,emg_prev_1_0,emg_prev_1_1,emg_prev_1_2,emg_prev_1_3,emg_prev_1_4,emg_prev_1_5,emg_prev_1_6,emg_prev_1_7,emg_prev_1_8,emg_prev_1_9,emg_prev_1_10,emg_prev_1_11,emg_prev_1_12,emg_prev_1_13,emg_prev_1_14,emg_prev_1_15,emg_prev_1_16,emg_prev_1_17,emg_prev_1_18,emg_prev_1_19,emg_prev_2_0,emg_prev_2_1,emg_prev_2_2,emg_prev_2_3,emg_prev_2_4,emg_prev_2_5,emg_prev_2_6,emg_prev_2_7,emg_prev_2_8,emg_prev_2_9,emg_prev_2_10,emg_prev_2_11,emg_prev_2_12,emg_prev_2_13,emg_prev_2_14,emg_prev_2_15,emg_prev_2_16,emg_prev_2_17,emg_prev_2_18,emg_prev_2_19
0,0.0,0.0,0.0,0.0,0.0,0.0,0.0,0.0,0.0,0.0,0.0,0.0,0.0,0.0,0.0,0.0,0.0,0.0,0.0,0.0,0.0,0.0,0.0,0.0,0.0,0.0,0.0,0.0,0.0,0.0,0.0,0.0,0.0,0.0,0.0,0.0,0.0,0.0,0.0,0.0,0.0,0.0,0.0,0.0,0.0,0.0,0.0,0.0,0.0,0.0,0.0,0.0,0.0,0.0,0.0,0.0,0.0,0.0,0.0,0.0,0.0,0.0,0.0,0.0,0.0,0.0,0.0,0.0,0.0,0.0,0.0,0.0,0.0,0.0,0.0
0,507.75555555555553,510.3333333333333,518.2444444444444,512.0,454.0,501.0,499.0,454.0,498.0,26.0,110.0,38.0,512.0,504.0,529.0,499.0,499.0,499.0,499.0,504.0,504.0,504.0,504.0,504.0,510.0,510.0,510.0,510.0,510.0,505.0,505.0,505.0,505.0,505.0,512.0,504.0,504.0,504.0,504.0,489.0,489.0,489.0,489.0,489.0,459.0,459.0,459.0,459.0,459.0,456.0,456.0,456.0,456.0,456.0,454.0,529.0,529.0,529.0,529.0,511.0,511.0,511.0,511.0,511.0,498.0,498.0,498.0,498.0,498.0,506.0,506.0,506.0,506.0,506.0,501.0
0,507.0,498.46666666666664,516.2888888888889,495.0,458.0,492.0,495.0,454.0,492.0,30.0,98.0,44.0,512.0,489.0,511.0,504.0,504.0,504.0,504.0,510.0,510.0,510.0,510.0,510.0,505.0,505.0,505.0,505.0,505.0,512.0,512.0,512.0,512.0,512.0,495.0,489.0,489.0,489.0,489.0,459.0,459.0,459.0,459.0,459.0,456.0,456.0,456.0,456.0,456.0,454.0,454.0,454.0,454.0,454.0,458.0,511.0,511.0,511.0,511.0,498.0,498.0,498.0,498.0,498.0,506.0,506.0,506.0,506.0,506.0,501.0,501.0,501.0,501.0,501.0,492.0
0,504.4888888888889,490.24444444444447,513.7333333333333,502.0,464.0,505.0,495.0,454.0,492.0,17.0,94.0,44.0,512.0,464.0,506.0,510.0,510.0,510.0,510.0,510.0,505.0,505.0,505.0,505.0,505.0,512.0,512.0,512.0,512.0,512.0,495.0,495.0,495.0,495.0,502.0,459.0,459.0,459.0,459.0,459.0,456.0,456.0,456.0,456.0,456.0,454.0,454.0,454.0,454.0,454.0,458.0,458.0,458.0,458.0,464.0,498.0,498.0,498.0,498.0,498.0,506.0,506.0,506.0,506.0,506.0,501.0,501.0,501.0,501.0,501.0,492.0,492.0,492.0,492.0,505.0
0,504.06666666666666,482.75555555555553,510.97777777777776,503.0,463.0,505.0,495.0,454.0,492.0,17.0,94.0,44.0,512.0,464.0,506.0,510.0,505.0,505.0,505.0,505.0,505.0,512.0,512.0,512.0,512.0,512.0,495.0,495.0,495.0,495.0,502.0,502.0,502.0,502.0,503.0,459.0,456.0,456.0,456.0,456.0,456.0,454.0,454.0,454.0,454.0,454.0,458.0,458.0,458.0,458.0,464.0,464.0,464.0,464.0,463.0,498.0,506.0,506.0,506.0,506.0,506.0,501.0,501.0,501.0,501.0,501.0,492.0,492.0,492.0,492.0,505.0,505.0,505.0,505.0,505.0
0,504.0444444444444,476.93333333333334,508.55555555555554,512.0,466.0,496.0,495.0,454.0,492.0,17.0,69.0,37.0,512.0,466.0,506.0,505.0,505.0,512.0,512.0,512.0,512.0,512.0,495.0,495.0,495.0,495.0,502.0,502.0,502.0,502.0,503.0,503.0,503.0,503.0,512.0,456.0,456.0,454.0,454.0,454.0,454.0,454.0,458.0,458.0,458.0,458.0,464.0,464.0,464.0,464.0,463.0,463.0,463.0,463.0,466.0,506.0,506.0,501.0,501.0,501.0,501.0,501.0,492.0,492.0,492.0,492.0,505.0,505.0,505.0,505.0,505.0,505.0,505.0,505.0,496.0
0,504.5111111111111,473.75555555555553,507.02222222222224,509.0,491.0,515.0,495.0,454.0,492.0,17.0,66.0,37.0,512.0,491.0,515.0,512.0,512.0,512.0,512.0,495.0,495.0,495.0,495.0,502.0,502.0,502.0,502.0,503.0,503.0,503.0,503.0,512.0,512.0,512.0,509.0,454.0,454.0,454.0,454.0,458.0,458.0,458.0,458.0,464.0,464.0,464.0,464.0,463.0,463.0,463.0,463.0,466.0,466.0,466.0,491.0,501.0,501.0,501.0,501.0,492.0,492.0,492.0,492.0,505.0,505.0,505.0,505.0,505.0,505.0,505.0,505.0,496.0,496.0,496.0,515.0
0,505.02222222222224,471.73333333333335,506.24444444444447,511.0,487.0,495.0,495.0,454.0,492.0,17.0,66.0,37.0,512.0,491.0,515.0,512.0,495.0,495.0,495.0,495.0,502.0,502.0,502.0,502.0,503.0,503.0,503.0,503.0,512.0,512.0,512.0,509.0,509.0,509.0,511.0,454.0,458.0,458.0,458.0,458.0,464.0,464.0,464.0,464.0,463.0,463.0,463.0,463.0,466.0,466.0,466.0,491.0,491.0,491.0,487.0,501.0,492.0,492.0,492.0,492.0,505.0,505.0,505.0,505.0,505.0,505.0,505.0,505.0,496.0,496.0,496.0,515.0,515.0,515.0,495.0
0,505.75555555555553,470.24444444444447,504.1777777777778,511.0,487.0,495.0,495.0,458.0,492.0,17.0,50.0,37.0,512.0,491.0,515.0,495.0,495.0,502.0,502.0,502.0,502.0,503.0,503.0,503.0,503.0,512.0,512.0,512.0,509.0,509.0,509.0,511.0,511.0,511.0,511.0,458.0,458.0,464.0,464.0,464.0,464.0,463.0,463.0,463.0,463.0,466.0,466.0,466.0,491.0,491.0,491.0,487.0,487.0,487.0,487.0,492.0,492.0,505.0,505.0,505.0,505.0,505.0,505.0,505.0,505.0,496.0,496.0,496.0,515.0,515.0,515.0,495.0,495.0,495.0,495.0
0,506.8222222222222,470.6222222222222,502.31111111111113,513.0,521.0,521.0,502.0,463.0,491.0,21.0,67.0,30.0,516.0,521.0,521.0,502.0,502.0,502.0,503.0,503.0,503.0,503.0,512.0,512.0,512.0,509.0,509.0,509.0,511.0,511.0,511.0,511.0,516.0,516.0,513.0,464.0,464.0,464.0,463.0,463.0,463.0,463.0,466.0,466.0,466.0,491.0,491.0,491.0,487.0,487.0,487.0,487.0,504.0,504.0,521.0,505.0,505.0,505.0,505.0,505.0,505.0,505.0,496.0,496.0,496.0,515.0,515.0,515.0,495.0,495.0,495.0,495.0,491.0,491.0,521.0
0,507.68888888888887,474.97777777777776,502.75555555555553,516.0,539.0,506.0,503.0,463.0,491.0,21.0,85.0,30.0,516.0,539.0,521.0,503.0,503.0,512.0,512.0,512.0,509.0,509.0,509.0,511.0,511.0,511.0,511.0,516.0,516.0,513.0,513.0,513.0,513.0,516.0,516.0,463.0,463.0,466.0,466.0,466.0,491.0,491.0,491.0,487.0,487.0,487.0,487.0,504.0,504.0,521.0,521.0,521.0,521.0,539.0,539.0,505.0,505.0,496.0,496.0,496.0,515.0,515.0,515.0,495.0,495.0,495.0,495.0,491.0,491.0,521.0,521.0,521.0,521.0,506.0,506.0
0,508.2888888888889,480.4,503.0444444444444,513.0,543.0,495.0,509.0,466.0,491.0,21.0,89.0,30.0,516.0,543.0,521.0,512.0,512.0,509.0,509.0,509.0,511.0,511.0,511.0,511.0,516.0,516.0,513.0,513.0,513.0,513.0,516.0,516.0,516.0,516.0,513.0,466.0,466.0,491.0,491.0,491.0,487.0,487.0,487.0,487.0,504.0,504.0,521.0,521.0,521.0,521.0,539.0,539.0,539.0,539.0,543.0,496.0,496.0,515.0,515.0,515.0,495.0,495.0,495.0,495.0,491.0,491.0,521.0,521.0,521.0,521.0,506.0,506.0,506.0,506.0,495.0
0,508.93333333333334,490.35555555555555,502.4,512.0,562.0,505.0,511.0,487.0,491.0,21.0,108.0,30.0,516.0,562.0,521.0,511.0,511.0,511.0,511.0,516.0,516.0,513.0,513.0,513.0,513.0,516.0,516.0,516.0,516.0,513.0,513.0,513.0,513.0,513.0,512.0,487.0,487.0,487.0,487.0,504.0,504.0,521.0,521.0,521.0,521.0,539.0,539.0,539.0,539.0,543.0,543.0,543.0,543.0,543.0,562.0,495.0,495.0,495.0,495.0,491.0,491.0,521.0,521.0,521.0,521.0,506.0,506.0,506.0,506.0,495.0,495.0,495.0,495.0,495.0,505.0
0,509.3333333333333,500.02222222222224,502.6222222222222,516.0,569.0,509.0,512.0,504.0,491.0,21.0,115.0,30.0,516.0,569.0,521.0,516.0,516.0,513.0,513.0,513.0,513.0,516.0,516.0,516.0,516.0,513.0,513.0,513.0,513.0,513.0,512.0,512.0,512.0,512.0,516.0,504.0,504.0,521.0,521.0,521.0,521.0,539.0,539.0,539.0,539.0,543.0,543.0,543.0,543.0,543.0,562.0,562.0,562.0,562.0,569.0,491.0,491.0,521.0,521.0,521.0,521.0,506.0,506.0,506.0,506.0,495.0,495.0,495.0,495.0,495.0,505.0,505.0,505.0,505.0,509.0
0,510.4222222222222,512.7111111111111,504.22222222222223,511.0,573.0,523.0,511.0,521.0,495.0,21.0,115.0,32.0,516.0,573.0,523.0,513.0,516.0,516.0,516.0,516.0,513.0,513.0,513.0,513.0,513.0,512.0,512.0,512.0,512.0,516.0,516.0,516.0,516.0,516.0,511.0,521.0,539.0,539.0,539.0,539.0,543.0,543.0,543.0,543.0,543.0,562.0,562.0,562.0,562.0,569.0,569.0,569.0,569.0,569.0,573.0,521.0,506.0,506.0,506.0,506.0,495.0,495.0,495.0,495.0,495.0,505.0,505.0,505.0,505.0,509.0,509.0,509.0,509.0,509.0,523.0
0,511.46666666666664,522.5555555555555,506.55555555555554,508.0,568.0,530.0,508.0,539.0,495.0,14.0,110.0,39.0,516.0,573.0,530.0,516.0,513.0,513.0,513.0,513.0,513.0,512.0,512.0,512.0,512.0,516.0,516.0,516.0,516.0,516.0,511.0,511.0,511.0,511.0,508.0,539.0,543.0,543.0,543.0,543.0,543.0,562.0,562.0,562.0,562.0,569.0,569.0,569.0,569.0,569.0,573.0,573.0,573.0,573.0,568.0,506.0,495.0,495.0,495.0,495.0,495.0,505.0,505.0,505.0,505.0,509.0,509.0,509.0,509.0,509.0,523.0,523.0,523.0,523.0,530.0
0,512.0222222222222,531.6222222222223,508.84444444444443,511.0,558.0,533.0,508.0,543.0,495.0,13.0,110.0,42.0,516.0,573.0,533.0,513.0,513.0,512.0,512.0,512.0,512.0,516.0,516.0,516.0,516.0,516.0,511.0,511.0,511.0,511.0,508.0,508.0,508.0,508.0,511.0,543.0,543.0,562.0,562.0,562.0,562.0,569.0,569.0,569.0,569.0,569.0,573.0,573.0,573.0,573.0,568.0,568.0,568.0,568.0,558.0,495.0,495.0,505.0,505.0,505.0,505.0,509.0,509.0,509.0,509.0,509.0,523.0,523.0,523.0,523.0,530.0,530.0,530.0,530.0,533.0
0,512.2666666666667,537.4222222222222,510.93333333333334,507.0,537.0,534.0,507.0,537.0,505.0,9.0,107.0,43.0,516.0,573.0,534.0,512.0,512.0,512.0,516.0,516.0,516.0,516.0,516.0,511.0,511.0,511.0,511.0,508.0,508.0,508.0,508.0,511.0,511.0,511.0,507.0,562.0,562.0,562.0,569.0,569.0,569.0,569.0,569.0,573.0,573.0,573.0,573.0,568.0,568.0,568.0,568.0,558.0,558.0,558.0,537.0,505.0,505.0,505.0,509.0,509.0,509.0,509.0,509.0,523.0,523.0,523.0,523.0,530.0,530.0,530.0,530.0,533.0,533.0,533.0,534.0
0,512.0666666666667,543.1333333333333,513.7333333333333,514.0,514.0,527.0,507.0,514.0,509.0,9.0,86.0,43.0,516.0,573.0,534.0,516.0,516.0,516.0,511.0,511.0,511.0,511.0,508.0,508.0,508.0,508.0,511.0,511.0,511.0,507.0,507.0,507.0,507.0,507.0,514.0,569.0,569.0,569.0,573.0,573.0,573.0,573.0,568.0,568.0,568.0,568.0,558.0,558.0,558.0,537.0,537.0,537.0,537.0,537.0,514.0,509.0,509.0,509.0,523.0,523.0,523.0,523.0,530.0,530.0,530.0,530.0,533.0,533.0,533.0,534.0,534.0,534.0,534.0,534.0,527.0
0,512.2888888888889,545.2222222222222,516.5333333333333,512.0,500.0,525.0,507.0,500.0,523.0,9.0,73.0,43.0,514.0,573.0,534.0,511.0,511.0,511.0,508.0,508.0,508.0,508.0,511.0,511.0,511.0,507.0,507.0,507.0,507.0,507.0,514.0,514.0,514.0,514.0,512.0,573.0,573.0,573.0,568.0,568.0,568.0,568.0,558.0,558.0,558.0,537.0,537.0,537.0,537.0,537.0,514.0,514.0,514.0,514.0,500.0,523.0,523.0,523.0,530.0,530.0,530.0,530.0,533.0,533.0,533.0,534.0,534.0,534.0,534.0,534.0,527.0,527.0,527.0,527.0,525.0
0,511.9555555555556,543.8666666666667,518.0888888888888,507.0,489.0,519.0,507.0,489.0,519.0,9.0,84.0,39.0,514.0,568.0,534.0,508.0,508.0,508.0,511.0,511.0,511.0,507.0,507.0,507.0,507.0,507.0,514.0,514.0,514.0,514.0,512.0,512.0,512.0,512.0,507.0,568.0,568.0,568.0,558.0,558.0,558.0,537.0,537.0,537.0,537.0,537.0,514.0,514.0,514.0,514.0,500.0,500.0,500.0,500.0,489.0,530.0,530.0,530.0,533.0,533.0,533.0,534.0,534.0,534.0,534.0,534.0,527.0,527.0,527.0,527.0,525.0,525.0,525.0,525.0,519.0
0,511.24444444444447,539.9333333333333,518.3555555555556,505.0,476.0,509.0,505.0,476.0,509.0,11.0,97.0,39.0,514.0,558.0,534.0,511.0,511.0,507.0,507.0,507.0,507.0,507.0,514.0,514.0,514.0,514.0,512.0,512.0,512.0,512.0,507.0,507.0,507.0,507.0,505.0,558.0,558.0,537.0,537.0,537.0,537.0,537.0,514.0,514.0,514.0,514.0,500.0,500.0,500.0,500.0,489.0,489.0,489.0,489.0,476.0,533.0,533.0,534.0,534.0,534.0,534.0,534.0,527.0,527.0,527.0,527.0,525.0,525.0,525.0,525.0,519.0,519.0,519.0,519.0,509.0
0,510.22222222222223,530.3777777777777,519.6888888888889,509.0,458.0,508.0,505.0,458.0,508.0,11.0,115.0,39.0,514.0,537.0,534.0,507.0,514.0,514.0,514.0,514.0,512.0,512.0,512.0,512.0,507.0,507.0,507.0,507.0,505.0,505.0,505.0,505.0,505.0,509.0,509.0,537.0,514.0,514.0,514.0,514.0,500.0,500.0,500.0,500.0,489.0,489.0,489.0,489.0,476.0,476.0,476.0,476.0,476.0,458.0,458.0,534.0,527.0,527.0,527.0,527.0,525.0,525.0,525.0,525.0,519.0,519.0,519.0,519.0,509.0,509.0,509.0,509.0,509.0,508.0,508.0
0,509.75555555555553,519.2,520.1111111111111,504.0,456.0,502.0,504.0,456.0,502.0,12.0,117.0,32.0,512.0,500.0,525.0,512.0,512.0,512.0,512.0,507.0,507.0,507.0,507.0,505.0,505.0,505.0,505.0,505.0,509.0,509.0,509.0,509.0,509.0,509.0,504.0,500.0,500.0,500.0,500.0,489.0,489.0,489.0,489.0,476.0,476.0,476.0,476.0,476.0,458.0,458.0,458.0,458.0,458.0,458.0,456.0,525.0,525.0,525.0,525.0,519.0,519.0,519.0,519.0,509.0,509.0,509.0,509.0,509.0,508.0,508.0,508.0,508.0,508.0,508.0,502.0
0,508.84444444444443,509.06666666666666,519.3777777777777,511.0,452.0,497.0,504.0,452.0,497.0,12.0,121.0,37.0,511.0,489.0,519.0,507.0,507.0,507.0,507.0,505.0,505.0,505.0,505.0,505.0,509.0,509.0,509.0,509.0,509.0,509.0,504.0,504.0,504.0,504.0,511.0,489.0,489.0,489.0,489.0,476.0,476.0,476.0,476.0,476.0,458.0,458.0,458.0,458.0,458.0,458.0,456.0,456.0,456.0,456.0,452.0,519.0,519.0,519.0,519.0,509.0,509.0,509.0,509.0,509.0,508.0,508.0,508.0,508.0,508.0,508.0,502.0,502.0,502.0,502.0,497.0
0,508.46666666666664,498.6,517.5555555555555,499.0,461.0,505.0,499.0,452.0,497.0,15.0,121.0,37.0,511.0,476.0,509.0,505.0,505.0,505.0,505.0,505.0,509.0,509.0,509.0,509.0,509.0,509.0,504.0,504.0,504.0,504.0,511.0,511.0,511.0,511.0,499.0,476.0,476.0,476.0,476.0,476.0,458.0,458.0,458.0,458.0,458.0,458.0,456.0,456.0,456.0,456.0,452.0,452.0,452.0,452.0,461.0,509.0,509.0,509.0,509.0,509.0,508.0,508.0,508.0,508.0,508.0,508.0,502.0,502.0,502.0,502.0,497.0,497.0,497.0,497.0,505.0
0,507.8666666666667,491.26666666666665,515.9111111111112,502.0,457.0,499.0,499.0,452.0,497.0,15.0,116.0,37.0,511.0,476.0,509.0,505.0,505.0,509.0,509.0,509.0,509.0,509.0,509.0,504.0,504.0,504.0,504.0,511.0,511.0,511.0,511.0,499.0,499.0,499.0,502.0,476.0,476.0,458.0,458.0,458.0,458.0,458.0,458.0,456.0,456.0,456.0,456.0,452.0,452.0,452.0,452.0,461.0,461.0,461.0,457.0,509.0,509.0,508.0,508.0,508.0,508.0,508.0,508.0,502.0,502.0,502.0,502.0,497.0,497.0,497.0,497.0,505.0,505.0,505.0,499.0
0,507.4222222222222,481.97777777777776,512.9111111111112,512.0,463.0,494.0,499.0,452.0,494.0,15.0,106.0,40.0,512.0,463.0,508.0,509.0,509.0,509.0,509.0,504.0,504.0,504.0,504.0,511.0,511.0,511.0,511.0,499.0,499.0,499.0,502.0,502.0,502.0,502.0,512.0,458.0,458.0,458.0,458.0,456.0,456.0,456.0,456.0,452.0,452.0,452.0,452.0,461.0,461.0,461.0,457.0,457.0,457.0,457.0,463.0,508.0,508.0,508.0,508.0,502.0,502.0,502.0,502.0,497.0,497.0,497.0,497.0,505.0,505.0,505.0,499.0,499.0,499.0,499.0,494.0
0,507.68888888888887,476.75555555555553,510.1777777777778,513.0,471.0,490.0,499.0,452.0,490.0,15.0,85.0,44.0,513.0,471.0,508.0,509.0,504.0,504.0,504.0,504.0,511.0,511.0,511.0,511.0,499.0,499.0,499.0,502.0,502.0,502.0,502.0,512.0,512.0,512.0,513.0,458.0,456.0,456.0,456.0,456.0,452.0,452.0,452.0,452.0,461.0,461.0,461.0,457.0,457.0,457.0,457.0,463.0,463.0,463.0,471.0,508.0,502.0,502.0,502.0,502.0,497.0,497.0,497.0,497.0,505.0,505.0,505.0,499.0,499.0,499.0,499.0,494.0,494.0,494.0,490.0
0,508.0,472.73333333333335,507.31111111111113,509.0,488.0,493.0,499.0,452.0,490.0,15.0,62.0,37.0,513.0,488.0,505.0,504.0,504.0,511.0,511.0,511.0,511.0,499.0,499.0,499.0,502.0,502.0,502.0,502.0,512.0,512.0,512.0,513.0,513.0,513.0,509.0,456.0,456.0,452.0,452.0,452.0,452.0,461.0,461.0,461.0,457.0,457.0,457.0,457.0,463.0,463.0,463.0,471.0,471.0,471.0,488.0,502.0,502.0,497.0,497.0,497.0,497.0,505.0,505.0,505.0,499.0,499.0,499.0,499.0,494.0,494.0,494.0,490.0,490.0,490.0,493.0
0,507.77777777777777,471.5777777777778,505.8,509.0,488.0,493.0,499.0,452.0,490.0,15.0,62.0,37.0,513.0,488.0,505.0,511.0,511.0,511.0,511.0,499.0,499.0,499.0,502.0,502.0,502.0,502.0,512.0,512.0,512.0,513.0,513.0,513.0,509.0,509.0,509.0,452.0,452.0,452.0,452.0,461.0,461.0,461.0,457.0,457.0,457.0,457.0,463.0,463.0,463.0,471.0,471.0,471.0,488.0,488.0,488.0,497.0,497.0,497.0,497.0,505.0,505.0,505.0,499.0,499.0,499.0,499.0,494.0,494.0,494.0,490.0,490.0,490.0,493.0,493.0,493.0
0,507.77777777777777,471.9111111111111,502.93333333333334,514.0,517.0,500.0,499.0,457.0,490.0,15.0,65.0,35.0,514.0,517.0,505.0,499.0,499.0,502.0,502.0,502.0,502.0,512.0,512.0,512.0,513.0,513.0,513.0,509.0,509.0,509.0,512.0,512.0,512.0,514.0,514.0,461.0,461.0,457.0,457.0,457.0,457.0,463.0,463.0,463.0,471.0,471.0,471.0,488.0,488.0,488.0,503.0,503.0,503.0,517.0,517.0,505.0,505.0,499.0,499.0,499.0,499.0,494.0,494.0,494.0,490.0,490.0,490.0,493.0,493.0,493.0,500.0,500.0,500.0,500.0,500.0
0,508.55555555555554,474.8222222222222,501.46666666666664,520.0,532.0,508.0,502.0,457.0,490.0,21.0,80.0,29.0,520.0,532.0,508.0,502.0,502.0,512.0,512.0,512.0,513.0,513.0,513.0,509.0,509.0,509.0,512.0,512.0,512.0,514.0,514.0,514.0,514.0,520.0,520.0,457.0,457.0,463.0,463.0,463.0,471.0,471.0,471.0,488.0,488.0,488.0,503.0,503.0,503.0,517.0,517.0,517.0,517.0,532.0,532.0,499.0,499.0,494.0,494.0,494.0,490.0,490.0,490.0,493.0,493.0,493.0,500.0,500.0,500.0,500.0,500.0,500.0,500.0,508.0,508.0
0,509.31111111111113,479.9111111111111,500.75555555555553,508.0,541.0,499.0,508.0,463.0,490.0,21.0,89.0,19.0,520.0,541.0,508.0,512.0,513.0,513.0,513.0,509.0,509.0,509.0,512.0,512.0,512.0,514.0,514.0,514.0,514.0,520.0,520.0,520.0,520.0,508.0,508.0,463.0,471.0,471.0,471.0,488.0,488.0,488.0,503.0,503.0,503.0,517.0,517.0,517.0,517.0,532.0,532.0,532.0,532.0,541.0,541.0,494.0,490.0,490.0,490.0,493.0,493.0,493.0,500.0,500.0,500.0,500.0,500.0,500.0,500.0,508.0,508.0,508.0,508.0,499.0,499.0
0,509.9111111111111,485.1333333333333,500.3333333333333,519.0,552.0,504.0,508.0,471.0,490.0,21.0,100.0,18.0,520.0,552.0,508.0,513.0,509.0,509.0,509.0,512.0,512.0,512.0,514.0,514.0,514.0,514.0,520.0,520.0,520.0,520.0,508.0,508.0,508.0,519.0,519.0,471.0,488.0,488.0,488.0,503.0,503.0,503.0,517.0,517.0,517.0,517.0,532.0,532.0,532.0,532.0,541.0,541.0,541.0,552.0,552.0,490.0,493.0,493.0,493.0,500.0,500.0,500.0,500.0,500.0,500.0,500.0,508.0,508.0,508.0,508.0,499.0,499.0,499.0,504.0,504.0
0,510.53333333333336,494.15555555555557,500.55555555555554,513.0,567.0,517.0,508.0,503.0,499.0,21.0,115.0,27.0,520.0,567.0,517.0,512.0,512.0,512.0,514.0,514.0,514.0,514.0,520.0,520.0,520.0,520.0,508.0,508.0,508.0,519.0,519.0,519.0,519.0,513.0,513.0,503.0,503.0,503.0,517.0,517.0,517.0,517.0,532.0,532.0,532.0,532.0,541.0,541.0,541.0,552.0,552.0,552.0,552.0,567.0,567.0,500.0,500.0,500.0,500.0,500.0,500.0,500.0,508.0,508.0,508.0,508.0,499.0,499.0,499.0,504.0,504.0,504.0,504.0,517.0,517.0
0,511.06666666666666,501.2888888888889,501.2888888888889,514.0,562.0,514.0,508.0,517.0,499.0,21.0,115.0,27.0,520.0,567.0,517.0,514.0,514.0,514.0,514.0,520.0,520.0,520.0,520.0,508.0,508.0,508.0,519.0,519.0,519.0,519.0,513.0,513.0,513.0,514.0,514.0,517.0,517.0,517.0,517.0,532.0,532.0,532.0,532.0,541.0,541.0,541.0,552.0,552.0,552.0,552.0,567.0,567.0,567.0,562.0,562.0,500.0,500.0,500.0,500.0,508.0,508.0,508.0,508.0,499.0,499.0,499.0,504.0,504.0,504.0,504.0,517.0,517.0,517.0,514.0,514.0
0,511.4888888888889,508.53333333333336,502.1111111111111,512.0,564.0,512.0,508.0,517.0,499.0,21.0,115.0,27.0,520.0,567.0,517.0,514.0,520.0,520.0,520.0,520.0,508.0,508.0,508.0,519.0,519.0,519.0,519.0,513.0,513.0,513.0,514.0,514.0,514.0,512.0,512.0,517.0,532.0,532.0,532.0,532.0,541.0,541.0,541.0,552.0,552.0,552.0,552.0,567.0,567.0,567.0,562.0,562.0,562.0,564.0,564.0,500.0,508.0,508.0,508.0,508.0,499.0,499.0,499.0,504.0,504.0,504.0,504.0,517.0,517.0,517.0,514.0,514.0,514.0,512.0,512.0
0,511.53333333333336,513.5111111111111,502.77777777777777,512.0,564.0,512.0,508.0,532.0,499.0,21.0,115.0,27.0,520.0,567.0,517.0,520.0,520.0,520.0,508.0,508.0,508.0,519.0,519.0,519.0,519.0,513.0,513.0,513.0,514.0,514.0,514.0,512.0,512.0,512.0,512.0,532.0,532.0,532.0,541.0,541.0,541.0,552.0,552.0,552.0,552.0,567.0,567.0,567.0,562.0,562.0,562.0,564.0,564.0,564.0,564.0,508.0,508.0,508.0,499.0,499.0,499.0,504.0,504.0,504.0,504.0,517.0,517.0,517.0,514.0,514.0,514.0,512.0,512.0,512.0,512.0
0,512.1555555555556,517.3555555555556,503.5777777777778,519.0,543.0,519.0,508.0,532.0,499.0,21.0,110.0,29.0,520.0,567.0,519.0,520.0,508.0,508.0,508.0,519.0,519.0,519.0,519.0,513.0,513.0,513.0,514.0,514.0,514.0,512.0,512.0,512.0,512.0,519.0,509.0,532.0,541.0,541.0,541.0,552.0,552.0,552.0,552.0,567.0,567.0,567.0,562.0,562.0,562.0,564.0,564.0,564.0,564.0,543.0,527.0,508.0,499.0,499.0,499.0,504.0,504.0,504.0,504.0,517.0,517.0,517.0,514.0,514.0,514.0,512.0,512.0,512.0,512.0,519.0,522.0
0,512.7333333333333,522.8666666666667,505.4888888888889,505.0,515.0,525.0,505.0,515.0,504.0,18.0,110.0,35.0,519.0,567.0,525.0,519.0,519.0,519.0,519.0,513.0,513.0,513.0,514.0,514.0,514.0,512.0,512.0,512.0,512.0,519.0,519.0,509.0,509.0,505.0,505.0,552.0,552.0,552.0,552.0,567.0,567.0,567.0,562.0,562.0,562.0,564.0,564.0,564.0,564.0,543.0,543.0,527.0,527.0,515.0,515.0,504.0,504.0,504.0,504.0,517.0,517.0,517.0,514.0,514.0,514.0,512.0,512.0,512.0,512.0,519.0,519.0,522.0,522.0,525.0,525.0
0,513.0666666666667,526.3333333333334,507.5111111111111,513.0,509.0,529.0,505.0,509.0,504.0,15.0,104.0,39.0,519.0,567.0,529.0,519.0,513.0,513.0,513.0,514.0,514.0,514.0,512.0,512.0,512.0,512.0,519.0,519.0,509.0,509.0,505.0,505.0,505.0,513.0,513.0,552.0,567.0,567.0,567.0,562.0,562.0,562.0,564.0,564.0,564.0,564.0,543.0,543.0,527.0,527.0,515.0,515.0,515.0,509.0,509.0,504.0,517.0,517.0,517.0,514.0,514.0,514.0,512.0,512.0,512.0,512.0,519.0,519.0,522.0,522.0,525.0,525.0,525.0,529.0,529.0
0,512.9555555555555,528.0444444444445,509.1111111111111,506.0,494.0,531.0,505.0,494.0,512.0,15.0,96.0,41.0,519.0,567.0,531.0,513.0,513.0,514.0,514.0,514.0,512.0,512.0,512.0,512.0,519.0,519.0,509.0,509.0,505.0,505.0,505.0,513.0,513.0,513.0,506.0,567.0,567.0,562.0,562.0,562.0,564.0,564.0,564.0,564.0,543.0,543.0,527.0,527.0,515.0,515.0,515.0,509.0,509.0,509.0,494.0,517.0,517.0,514.0,514.0,514.0,512.0,512.0,512.0,512.0,519.0,519.0,522.0,522.0,525.0,525.0,525.0,529.0,529.0,529.0,531.0
0,512.6,528.8222222222222,512.2888888888889,510.0,474.0,522.0,505.0,474.0,512.0,15.0,93.0,38.0,519.0,564.0,531.0,514.0,512.0,512.0,512.0,512.0,519.0,519.0,509.0,509.0,505.0,505.0,505.0,513.0,513.0,513.0,506.0,506.0,506.0,510.0,510.0,562.0,564.0,564.0,564.0,564.0,543.0,543.0,527.0,527.0,515.0,515.0,515.0,509.0,509.0,509.0,494.0,494.0,494.0,474.0,474.0,514.0,512.0,512.0,512.0,512.0,519.0,519.0,522.0,522.0,525.0,525.0,525.0,529.0,529.0,529.0,531.0,531.0,531.0,522.0,522.0
0,512.6,527.9333333333333,513.5777777777778,508.0,462.0,522.0,505.0,462.0,512.0,15.0,105.0,32.0,519.0,564.0,531.0,512.0,512.0,512.0,519.0,519.0,509.0,509.0,505.0,505.0,505.0,513.0,513.0,513.0,506.0,506.0,506.0,510.0,510.0,510.0,508.0,564.0,564.0,564.0,543.0,543.0,527.0,527.0,515.0,515.0,515.0,509.0,509.0,509.0,494.0,494.0,494.0,474.0,474.0,474.0,462.0,512.0,512.0,512.0,519.0,519.0,522.0,522.0,525.0,525.0,525.0,529.0,529.0,529.0,531.0,531.0,531.0,522.0,522.0,522.0,522.0
0,512.3333333333334,526.0888888888888,514.4888888888889,504.0,461.0,519.0,504.0,461.0,512.0,16.0,106.0,32.0,519.0,564.0,531.0,512.0,519.0,519.0,509.0,509.0,505.0,505.0,505.0,513.0,513.0,513.0,506.0,506.0,506.0,510.0,510.0,510.0,508.0,508.0,504.0,564.0,543.0,543.0,527.0,527.0,515.0,515.0,515.0,509.0,509.0,509.0,494.0,494.0,494.0,474.0,474.0,474.0,462.0,462.0,461.0,512.0,519.0,519.0,522.0,522.0,525.0,525.0,525.0,529.0,529.0,529.0,531.0,531.0,531.0,522.0,522.0,522.0,522.0,522.0,519.0
0,511.7111111111111,522.5111111111111,515.2666666666667,504.0,454.0,497.0,504.0,454.0,497.0,16.0,113.0,34.0,513.0,527.0,531.0,509.0,509.0,505.0,505.0,505.0,513.0,513.0,513.0,506.0,506.0,506.0,510.0,510.0,510.0,508.0,508.0,504.0,504.0,504.0,504.0,527.0,527.0,515.0,515.0,515.0,509.0,509.0,509.0,494.0,494.0,494.0,474.0,474.0,474.0,462.0,462.0,461.0,461.0,461.0,454.0,522.0,522.0,525.0,525.0,525.0,529.0,529.0,529.0,531.0,531.0,531.0,522.0,522.0,522.0,522.0,522.0,519.0,519.0,519.0,497.0
0,510.46666666666664,518.8666666666667,514.6222222222223,494.0,474.0,491.0,494.0,454.0,491.0,26.0,113.0,40.0,513.0,515.0,531.0,505.0,505.0,513.0,513.0,513.0,506.0,506.0,506.0,510.0,510.0,510.0,508.0,508.0,504.0,504.0,504.0,504.0,504.0,494.0,494.0,515.0,515.0,509.0,509.0,509.0,494.0,494.0,494.0,474.0,474.0,474.0,462.0,462.0,461.0,461.0,461.0,454.0,454.0,474.0,474.0,525.0,525.0,529.0,529.0,529.0,531.0,531.0,531.0,522.0,522.0,522.0,522.0,522.0,519.0,519.0,519.0,497.0,497.0,491.0,491.0
0,508.9111111111111,514.2888888888889,513.4444444444445,498.0,458.0,490.0,494.0,454.0,490.0,25.0,113.0,41.0,513.0,509.0,531.0,513.0,513.0,506.0,506.0,506.0,510.0,510.0,510.0,508.0,508.0,504.0,504.0,504.0,504.0,504.0,494.0,494.0,494.0,498.0,498.0,509.0,509.0,494.0,494.0,494.0,474.0,474.0,474.0,462.0,462.0,461.0,461.0,461.0,454.0,454.0,474.0,474.0,474.0,458.0,458.0,529.0,529.0,531.0,531.0,531.0,522.0,522.0,522.0,522.0,522.0,519.0,519.0,519.0,497.0,497.0,491.0,491.0,491.0,490.0,490.0
0,508.8666666666667,508.8888888888889,512.9333333333333,512.0,461.0,492.0,494.0,454.0,490.0,25.0,113.0,41.0,512.0,494.0,531.0,506.0,506.0,510.0,510.0,510.0,508.0,508.0,504.0,504.0,504.0,504.0,504.0,494.0,494.0,494.0,498.0,498.0,498.0,512.0,512.0,494.0,494.0,474.0,474.0,474.0,462.0,462.0,461.0,461.0,461.0,454.0,454.0,474.0,474.0,474.0,458.0,458.0,458.0,461.0,461.0,531.0,531.0,522.0,522.0,522.0,522.0,522.0,519.0,519.0,519.0,497.0,497.0,491.0,491.0,491.0,490.0,490.0,490.0,492.0,492.0
0,508.2888888888889,503.06666666666666,512.2,507.0,472.0,495.0,494.0,454.0,490.0,25.0,113.0,41.0,512.0,474.0,522.0,510.0,510.0,508.0,508.0,504.0,504.0,504.0,504.0,504.0,494.0,494.0,494.0,498.0,498.0,498.0,512.0,512.0,512.0,512.0,507.0,474.0,474.0,462.0,462.0,461.0,461.0,461.0,454.0,454.0,474.0,474.0,474.0,458.0,458.0,458.0,461.0,461.0,461.0,461.0,472.0,522.0,522.0,522.0,522.0,519.0,519.0,519.0,497.0,497.0,491.0,491.0,491.0,490.0,490.0,490.0,492.0,492.0,492.0,492.0,495.0
0,507.97777777777776,497.8222222222222,511.24444444444447,512.0,489.0,500.0,494.0,454.0,490.0,25.0,113.0,41.0,512.0,489.0,522.0,508.0,504.0,504.0,504.0,504.0,504.0,494.0,494.0,494.0,498.0,498.0,498.0,512.0,512.0,512.0,512.0,507.0,507.0,512.0,512.0,462.0,461.0,461.0,461.0,454.0,454.0,474.0,474.0,474.0,458.0,458.0,458.0,461.0,461.0,461.0,461.0,472.0,472.0,489.0,489.0,522.0,519.0,519.0,519.0,497.0,497.0,491.0,491.0,491.0,490.0,490.0,490.0,492.0,492.0,492.0,492.0,495.0,495.0,500.0,500.0
0,507.77777777777777,493.22222222222223,510.0444444444444,508.0,506.0,491.0,494.0,454.0,490.0,25.0,110.0,41.0,512.0,506.0,519.0,504.0,504.0,504.0,494.0,494.0,494.0,498.0,498.0,498.0,512.0,512.0,512.0,512.0,507.0,507.0,512.0,512.0,512.0,512.0,508.0,461.0,454.0,454.0,474.0,474.0,474.0,458.0,458.0,458.0,461.0,461.0,461.0,461.0,472.0,472.0,489.0,489.0,489.0,489.0,506.0,519.0,497.0,497.0,491.0,491.0,491.0,490.0,490.0,490.0,492.0,492.0,492.0,492.0,495.0,495.0,500.0,500.0,500.0,500.0,491.0
0,507.5111111111111,489.46666666666664,508.55555555555554,510.0,509.0,489.0,494.0,458.0,489.0,25.0,110.0,42.0,512.0,509.0,500.0,494.0,494.0,494.0,498.0,498.0,498.0,512.0,512.0,512.0,512.0,507.0,507.0,512.0,512.0,512.0,512.0,508.0,508.0,508.0,510.0,474.0,474.0,474.0,458.0,458.0,458.0,461.0,461.0,461.0,461.0,472.0,472.0,489.0,489.0,489.0,489.0,506.0,506.0,506.0,509.0,491.0,491.0,491.0,490.0,490.0,490.0,492.0,492.0,492.0,492.0,495.0,495.0,500.0,500.0,500.0,500.0,491.0,491.0,491.0,489.0
0,507.4,486.84444444444443,507.0444444444444,514.0,522.0,493.0,498.0,458.0,489.0,25.0,89.0,42.0,514.0,522.0,500.0,498.0,498.0,498.0,512.0,512.0,512.0,512.0,507.0,512.0,512.0,512.0,512.0,508.0,508.0,508.0,510.0,510.0,514.0,514.0,514.0,458.0,458.0,458.0,461.0,461.0,461.0,461.0,472.0,489.0,489.0,489.0,489.0,506.0,506.0,506.0,509.0,509.0,522.0,522.0,522.0,490.0,490.0,490.0,492.0,492.0,492.0,492.0,495.0,500.0,500.0,500.0,500.0,491.0,491.0,491.0,489.0,489.0,493.0,493.0,493.0
0,507.5111111111111,486.15555555555557,505.1777777777778,514.0,522.0,493.0,507.0,461.0,489.0,20.0,68.0,42.0,514.0,522.0,500.0,512.0,512.0,512.0,512.0,507.0,507.0,512.0,512.0,512.0,512.0,508.0,508.0,508.0,510.0,510.0,514.0,514.0,514.0,514.0,514.0,461.0,461.0,461.0,461.0,472.0,472.0,489.0,489.0,489.0,489.0,506.0,506.0,506.0,509.0,509.0,522.0,522.0,522.0,522.0,522.0,492.0,492.0,492.0,492.0,495.0,495.0,500.0,500.0,500.0,500.0,491.0,491.0,491.0,489.0,489.0,493.0,493.0,493.0,493.0,493.0
0,508.0888888888889,488.1111111111111,503.4888888888889,511.0,546.0,501.0,507.0,461.0,489.0,25.0,92.0,42.0,519.0,546.0,501.0,512.0,507.0,507.0,512.0,512.0,512.0,512.0,508.0,508.0,508.0,510.0,510.0,514.0,514.0,514.0,514.0,514.0,519.0,511.0,511.0,461.0,472.0,472.0,489.0,489.0,489.0,489.0,506.0,506.0,506.0,509.0,509.0,522.0,522.0,522.0,522.0,522.0,541.0,546.0,546.0,492.0,495.0,495.0,500.0,500.0,500.0,500.0,491.0,491.0,491.0,489.0,489.0,493.0,493.0,493.0,493.0,493.0,497.0,501.0,501.0
0,508.0444444444444,490.5111111111111,501.9111111111111,515.0,543.0,514.0,508.0,489.0,489.0,25.0,92.0,42.0,519.0,546.0,514.0,512.0,512.0,512.0,512.0,508.0,508.0,508.0,510.0,510.0,514.0,514.0,514.0,514.0,514.0,519.0,511.0,511.0,511.0,515.0,515.0,489.0,489.0,489.0,489.0,506.0,506.0,506.0,509.0,509.0,522.0,522.0,522.0,522.0,522.0,541.0,546.0,546.0,546.0,543.0,543.0,500.0,500.0,500.0,500.0,491.0,491.0,491.0,489.0,489.0,493.0,493.0,493.0,493.0,493.0,501.0,501.0,501.0,501.0,514.0,514.0
0,508.77777777777777,495.73333333333335,500.7111111111111,516.0,562.0,519.0,508.0,506.0,489.0,25.0,108.0,33.0,519.0,562.0,519.0,508.0,508.0,508.0,510.0,510.0,514.0,514.0,514.0,514.0,514.0,519.0,511.0,511.0,511.0,511.0,515.0,515.0,515.0,515.0,516.0,506.0,506.0,506.0,509.0,509.0,522.0,522.0,522.0,522.0,522.0,541.0,546.0,546.0,546.0,546.0,543.0,543.0,543.0,543.0,562.0,491.0,491.0,491.0,489.0,489.0,493.0,493.0,493.0,493.0,493.0,497.0,501.0,501.0,501.0,501.0,514.0,514.0,514.0,514.0,519.0
0,509.53333333333336,504.0888888888889,500.9111111111111,518.0,562.0,526.0,510.0,509.0,489.0,25.0,108.0,37.0,519.0,562.0,526.0,510.0,514.0,514.0,514.0,514.0,514.0,519.0,511.0,511.0,511.0,511.0,515.0,515.0,515.0,515.0,516.0,516.0,518.0,518.0,518.0,509.0,522.0,522.0,522.0,522.0,522.0,541.0,546.0,546.0,546.0,546.0,543.0,543.0,543.0,543.0,562.0,562.0,562.0,562.0,562.0,489.0,493.0,493.0,493.0,493.0,493.0,497.0,501.0,501.0,501.0,501.0,514.0,514.0,514.0,514.0,519.0,519.0,526.0,526.0,526.0
0,510.15555555555557,510.46666666666664,501.4222222222222,511.0,554.0,527.0,511.0,522.0,493.0,25.0,108.0,38.0,519.0,562.0,527.0,514.0,514.0,514.0,519.0,511.0,511.0,511.0,511.0,515.0,515.0,515.0,515.0,516.0,516.0,518.0,518.0,518.0,518.0,511.0,511.0,522.0,522.0,522.0,541.0,546.0,546.0,546.0,546.0,543.0,543.0,543.0,543.0,562.0,562.0,562.0,562.0,562.0,562.0,554.0,554.0,493.0,493.0,493.0,497.0,501.0,501.0,501.0,501.0,514.0,514.0,514.0,514.0,519.0,519.0,526.0,526.0,526.0,526.0,527.0,527.0
0,510.6222222222222,515.8,503.2,506.0,534.0,519.0,506.0,534.0,497.0,25.0,104.0,38.0,519.0,562.0,527.0,519.0,511.0,511.0,511.0,511.0,515.0,515.0,515.0,515.0,516.0,516.0,518.0,518.0,518.0,518.0,511.0,511.0,511.0,506.0,506.0,541.0,546.0,546.0,546.0,546.0,543.0,543.0,543.0,543.0,562.0,562.0,562.0,562.0,562.0,562.0,554.0,554.0,554.0,534.0,534.0,497.0,501.0,501.0,501.0,501.0,514.0,514.0,514.0,514.0,519.0,519.0,526.0,526.0,526.0,526.0,527.0,527.0,527.0,519.0,519.0
0,511.3777777777778,520.0222222222222,504.64444444444445,507.0,531.0,509.0,506.0,531.0,501.0,21.0,104.0,38.0,518.0,562.0,527.0,511.0,511.0,515.0,515.0,515.0,515.0,516.0,516.0,518.0,518.0,518.0,518.0,511.0,511.0,511.0,506.0,506.0,506.0,507.0,507.0,546.0,546.0,543.0,543.0,543.0,543.0,562.0,562.0,562.0,562.0,562.0,562.0,554.0,554.0,554.0,534.0,534.0,534.0,531.0,531.0,501.0,501.0,514.0,514.0,514.0,514.0,519.0,519.0,526.0,526.0,526.0,526.0,527.0,527.0,527.0,519.0,519.0,519.0,509.0,509.0
0,511.84444444444443,522.8666666666667,505.64444444444445,510.0,513.0,516.0,506.0,513.0,509.0,13.0,101.0,38.0,518.0,562.0,527.0,515.0,515.0,515.0,516.0,516.0,518.0,518.0,518.0,518.0,511.0,511.0,511.0,506.0,506.0,506.0,507.0,507.0,507.0,510.0,510.0,543.0,543.0,543.0,562.0,562.0,562.0,562.0,562.0,562.0,554.0,554.0,554.0,534.0,534.0,534.0,531.0,531.0,531.0,513.0,513.0,514.0,514.0,514.0,519.0,519.0,526.0,526.0,526.0,526.0,527.0,527.0,527.0,519.0,519.0,519.0,509.0,509.0,509.0,516.0,516.0
0,511.53333333333336,527.0,507.9555555555556,507.0,502.0,520.0,506.0,502.0,509.0,13.0,90.0,38.0,518.0,562.0,527.0,516.0,516.0,518.0,518.0,518.0,518.0,511.0,511.0,511.0,506.0,506.0,506.0,507.0,507.0,507.0,510.0,510.0,510.0,507.0,507.0,562.0,562.0,562.0,562.0,562.0,562.0,554.0,554.0,554.0,534.0,534.0,534.0,531.0,531.0,531.0,513.0,513.0,513.0,502.0,502.0,519.0,519.0,526.0,526.0,526.0,526.0,527.0,527.0,527.0,519.0,519.0,519.0,509.0,509.0,509.0,516.0,516.0,516.0,520.0,520.0
0,511.5111111111111,528.0,509.4222222222222,509.0,488.0,518.0,506.0,488.0,509.0,13.0,74.0,38.0,518.0,562.0,527.0,518.0,518.0,518.0,511.0,511.0,511.0,506.0,506.0,506.0,507.0,507.0,507.0,510.0,510.0,510.0,507.0,507.0,507.0,509.0,509.0,562.0,562.0,562.0,554.0,554.0,554.0,534.0,534.0,534.0,531.0,531.0,531.0,513.0,513.0,513.0,502.0,502.0,502.0,488.0,488.0,526.0,526.0,526.0,527.0,527.0,527.0,519.0,519.0,519.0,509.0,509.0,509.0,516.0,516.0,516.0,520.0,520.0,520.0,518.0,518.0
0,510.9555555555556,527.2222222222222,510.8888888888889,501.0,472.0,524.0,501.0,472.0,509.0,18.0,90.0,38.0,511.0,554.0,527.0,511.0,511.0,511.0,506.0,506.0,506.0,507.0,507.0,507.0,510.0,510.0,510.0,507.0,507.0,507.0,509.0,509.0,509.0,501.0,501.0,554.0,554.0,554.0,534.0,534.0,534.0,531.0,531.0,531.0,513.0,513.0,513.0,502.0,502.0,502.0,488.0,488.0,488.0,472.0,472.0,527.0,527.0,527.0,519.0,519.0,519.0,509.0,509.0,509.0,516.0,516.0,516.0,520.0,520.0,520.0,518.0,518.0,518.0,524.0,524.0
0,510.7111111111111,524.3333333333334,512.9555555555555,506.0,458.0,521.0,501.0,458.0,509.0,18.0,104.0,38.0,510.0,534.0,524.0,506.0,506.0,506.0,507.0,507.0,507.0,510.0,510.0,510.0,507.0,507.0,507.0,509.0,509.0,509.0,501.0,501.0,501.0,506.0,506.0,534.0,534.0,534.0,531.0,531.0,531.0,513.0,513.0,513.0,502.0,502.0,502.0,488.0,488.0,488.0,472.0,472.0,472.0,458.0,458.0,519.0,519.0,519.0,509.0,509.0,509.0,516.0,516.0,516.0,520.0,520.0,520.0,518.0,518.0,518.0,524.0,524.0,524.0,521.0,521.0
0,510.4888888888889,520.6444444444444,514.5111111111111,509.0,458.0,510.0,501.0,458.0,509.0,18.0,104.0,34.0,510.0,531.0,524.0,507.0,507.0,507.0,510.0,510.0,510.0,507.0,507.0,507.0,509.0,509.0,509.0,501.0,501.0,501.0,506.0,506.0,506.0,509.0,509.0,531.0,531.0,531.0,513.0,513.0,513.0,502.0,502.0,502.0,488.0,488.0,488.0,472.0,472.0,472.0,458.0,458.0,458.0,458.0,458.0,509.0,509.0,509.0,516.0,516.0,516.0,520.0,520.0,520.0,518.0,518.0,518.0,524.0,524.0,524.0,521.0,521.0,521.0,510.0,510.0
0,509.8,516.2888888888889,515.4666666666667,501.0,456.0,506.0,501.0,456.0,506.0,18.0,106.0,34.0,510.0,513.0,524.0,510.0,510.0,510.0,507.0,507.0,507.0,509.0,509.0,509.0,501.0,501.0,501.0,506.0,506.0,506.0,509.0,509.0,509.0,501.0,501.0,513.0,513.0,513.0,502.0,502.0,502.0,488.0,488.0,488.0,472.0,472.0,472.0,458.0,458.0,458.0,458.0,458.0,458.0,456.0,456.0,516.0,516.0,516.0,520.0,520.0,520.0,518.0,518.0,518.0,524.0,524.0,524.0,521.0,521.0,521.0,510.0,510.0,510.0,506.0,506.0
0,510.1777777777778,510.93333333333334,516.2,530.0,456.0,509.0,501.0,456.0,506.0,29.0,106.0,26.0,530.0,502.0,524.0,507.0,507.0,507.0,509.0,509.0,509.0,501.0,501.0,501.0,506.0,506.0,506.0,509.0,509.0,509.0,501.0,501.0,501.0,530.0,530.0,502.0,502.0,502.0,488.0,488.0,488.0,472.0,472.0,472.0,458.0,458.0,458.0,458.0,458.0,458.0,456.0,456.0,456.0,456.0,456.0,520.0,520.0,520.0,518.0,518.0,518.0,524.0,524.0,524.0,521.0,521.0,521.0,510.0,510.0,510.0,506.0,506.0,506.0,509.0,509.0
0,510.44444444444446,503.84444444444443,516.0888888888888,500.0,475.0,497.0,500.0,456.0,497.0,30.0,106.0,30.0,530.0,488.0,524.0,509.0,509.0,501.0,501.0,501.0,506.0,506.0,506.0,509.0,509.0,509.0,501.0,501.0,501.0,530.0,530.0,530.0,500.0,500.0,500.0,488.0,488.0,472.0,472.0,472.0,458.0,458.0,458.0,458.0,458.0,458.0,456.0,456.0,456.0,456.0,456.0,456.0,475.0,475.0,475.0,518.0,518.0,524.0,524.0,524.0,521.0,521.0,521.0,510.0,510.0,510.0,506.0,506.0,506.0,509.0,509.0,509.0,497.0,497.0,497.0
0,508.64444444444445,495.31111111111113,513.9777777777778,498.0,472.0,497.0,498.0,456.0,497.0,32.0,106.0,30.0,530.0,475.0,521.0,506.0,506.0,506.0,509.0,509.0,509.0,501.0,501.0,501.0,530.0,530.0,530.0,530.0,500.0,500.0,500.0,500.0,500.0,498.0,498.0,458.0,458.0,458.0,458.0,458.0,458.0,456.0,456.0,456.0,456.0,456.0,456.0,456.0,475.0,475.0,475.0,475.0,475.0,472.0,472.0,521.0,521.0,521.0,510.0,510.0,510.0,506.0,506.0,506.0,509.0,509.0,509.0,509.0,497.0,497.0,497.0,497.0,497.0,497.0,497.0
0,508.0,492.0,512.7333333333333,509.0,503.0,499.0,498.0,456.0,497.0,32.0,106.0,30.0,530.0,503.0,521.0,506.0,509.0,509.0,509.0,501.0,501.0,501.0,530.0,530.0,530.0,530.0,500.0,500.0,500.0,500.0,500.0,498.0,498.0,498.0,509.0,458.0,458.0,458.0,458.0,456.0,456.0,456.0,456.0,456.0,456.0,456.0,475.0,475.0,475.0,475.0,475.0,472.0,472.0,472.0,503.0,521.0,510.0,510.0,510.0,506.0,506.0,506.0,509.0,509.0,509.0,509.0,497.0,497.0,497.0,497.0,497.0,497.0,497.0,497.0,499.0
0,507.4888888888889,487.9111111111111,510.8888888888889,506.0,488.0,498.0,498.0,456.0,497.0,32.0,98.0,30.0,530.0,503.0,510.0,509.0,501.0,501.0,501.0,530.0,530.0,530.0,530.0,500.0,500.0,500.0,500.0,500.0,498.0,498.0,498.0,509.0,509.0,509.0,506.0,458.0,456.0,456.0,456.0,456.0,456.0,456.0,456.0,475.0,475.0,475.0,475.0,475.0,472.0,472.0,472.0,503.0,503.0,503.0,488.0,510.0,506.0,506.0,506.0,509.0,509.0,509.0,509.0,497.0,497.0,497.0,497.0,497.0,497.0,497.0,497.0,499.0,499.0,499.0,498.0
0,507.5111111111111,484.26666666666665,509.2,517.0,502.0,501.0,498.0,456.0,497.0,32.0,78.0,27.0,530.0,503.0,509.0,501.0,530.0,530.0,530.0,530.0,500.0,500.0,500.0,500.0,500.0,498.0,498.0,498.0,509.0,509.0,509.0,506.0,506.0,506.0,517.0,456.0,456.0,456.0,456.0,456.0,475.0,475.0,475.0,475.0,475.0,472.0,472.0,472.0,503.0,503.0,503.0,488.0,488.0,488.0,502.0,506.0,509.0,509.0,509.0,509.0,497.0,497.0,497.0,497.0,497.0,497.0,497.0,497.0,499.0,499.0,499.0,498.0,498.0,498.0,501.0
0,508.22222222222223,482.2,508.22222222222223,517.0,502.0,501.0,498.0,456.0,497.0,32.0,75.0,27.0,530.0,503.0,509.0,530.0,530.0,500.0,500.0,500.0,500.0,500.0,498.0,498.0,498.0,509.0,509.0,509.0,506.0,506.0,506.0,517.0,517.0,517.0,505.0,456.0,456.0,475.0,475.0,475.0,475.0,475.0,472.0,472.0,472.0,503.0,503.0,503.0,488.0,488.0,488.0,502.0,502.0,502.0,521.0,509.0,509.0,497.0,497.0,497.0,497.0,497.0,497.0,497.0,497.0,499.0,499.0,499.0,498.0,498.0,498.0,501.0,501.0,501.0,502.0
0,508.1333333333333,482.46666666666664,507.2888888888889,515.0,537.0,502.0,498.0,472.0,497.0,32.0,81.0,27.0,517.0,537.0,502.0,500.0,500.0,500.0,498.0,498.0,498.0,509.0,509.0,509.0,506.0,506.0,506.0,517.0,517.0,517.0,517.0,505.0,505.0,505.0,515.0,475.0,475.0,475.0,472.0,472.0,472.0,503.0,503.0,503.0,488.0,488.0,488.0,502.0,502.0,502.0,502.0,521.0,521.0,521.0,537.0,497.0,497.0,497.0,497.0,497.0,497.0,499.0,499.0,499.0,498.0,498.0,498.0,501.0,501.0,501.0,501.0,502.0,502.0,502.0,502.0
0,508.6,485.0888888888889,505.9555555555556,515.0,549.0,497.0,498.0,472.0,497.0,32.0,93.0,27.0,517.0,549.0,502.0,498.0,498.0,498.0,509.0,509.0,509.0,506.0,506.0,506.0,517.0,517.0,517.0,517.0,505.0,505.0,505.0,515.0,515.0,515.0,515.0,472.0,472.0,472.0,503.0,503.0,503.0,488.0,488.0,488.0,502.0,502.0,502.0,502.0,521.0,521.0,521.0,537.0,537.0,549.0,549.0,497.0,497.0,497.0,499.0,499.0,499.0,498.0,498.0,498.0,501.0,501.0,501.0,501.0,502.0,502.0,502.0,502.0,502.0,497.0,497.0
0,509.1333333333333,489.3333333333333,505.53333333333336,517.0,560.0,520.0,505.0,488.0,497.0,32.0,104.0,27.0,517.0,560.0,520.0,509.0,509.0,509.0,506.0,506.0,506.0,517.0,517.0,517.0,517.0,505.0,505.0,505.0,515.0,515.0,515.0,515.0,515.0,517.0,517.0,503.0,503.0,503.0,488.0,488.0,488.0,502.0,502.0,502.0,502.0,521.0,521.0,521.0,537.0,537.0,549.0,549.0,549.0,560.0,560.0,499.0,499.0,499.0,498.0,498.0,498.0,501.0,501.0,501.0,501.0,502.0,502.0,502.0,502.0,502.0,497.0,497.0,497.0,520.0,520.0
0,510.02222222222224,495.46666666666664,505.97777777777776,517.0,574.0,533.0,505.0,488.0,497.0,32.0,118.0,36.0,517.0,574.0,533.0,506.0,506.0,506.0,517.0,517.0,517.0,517.0,505.0,505.0,505.0,515.0,515.0,515.0,515.0,515.0,517.0,517.0,517.0,517.0,517.0,488.0,488.0,488.0,502.0,502.0,502.0,502.0,521.0,521.0,521.0,537.0,537.0,549.0,549.0,549.0,560.0,560.0,560.0,574.0,574.0,498.0,498.0,498.0,501.0,501.0,501.0,501.0,502.0,502.0,502.0,502.0,502.0,497.0,497.0,497.0,520.0,520.0,520.0,533.0,533.0
0,510.8,502.8,506.4222222222222,514.0,570.0,520.0,505.0,502.0,497.0,32.0,118.0,36.0,517.0,574.0,533.0,517.0,517.0,517.0,517.0,505.0,505.0,505.0,515.0,515.0,515.0,515.0,515.0,517.0,517.0,517.0,517.0,517.0,517.0,517.0,514.0,502.0,502.0,502.0,502.0,521.0,521.0,521.0,537.0,537.0,549.0,549.0,549.0,560.0,560.0,560.0,574.0,574.0,574.0,574.0,570.0,501.0,501.0,501.0,501.0,502.0,502.0,502.0,502.0,502.0,497.0,497.0,497.0,520.0,520.0,520.0,533.0,533.0,533.0,533.0,520.0
0,511.46666666666664,514.6666666666666,507.2888888888889,511.0,556.0,518.0,505.0,521.0,497.0,32.0,118.0,36.0,517.0,574.0,533.0,505.0,505.0,515.0,515.0,515.0,515.0,515.0,517.0,517.0,517.0,517.0,517.0,517.0,517.0,514.0,514.0,514.0,514.0,511.0,511.0,521.0,521.0,537.0,537.0,549.0,549.0,549.0,560.0,560.0,560.0,574.0,574.0,574.0,574.0,570.0,570.0,570.0,570.0,556.0,556.0,502.0,502.0,502.0,502.0,497.0,497.0,497.0,520.0,520.0,520.0,533.0,533.0,533.0,533.0,520.0,520.0,520.0,520.0,518.0,518.0
0,511.8888888888889,521.1111111111111,507.97777777777776,520.0,551.0,517.0,511.0,537.0,497.0,32.0,118.0,36.0,520.0,574.0,533.0,515.0,515.0,515.0,515.0,517.0,517.0,517.0,517.0,517.0,517.0,517.0,514.0,514.0,514.0,514.0,511.0,511.0,511.0,520.0,520.0,537.0,549.0,549.0,549.0,560.0,560.0,560.0,574.0,574.0,574.0,574.0,570.0,570.0,570.0,570.0,556.0,556.0,556.0,551.0,551.0,502.0,497.0,497.0,497.0,520.0,520.0,520.0,533.0,533.0,533.0,533.0,520.0,520.0,520.0,520.0,518.0,518.0,518.0,517.0,517.0
0,511.0888888888889,527.0444444444445,508.5777777777778,514.0,533.0,520.0,511.0,533.0,497.0,22.0,102.0,36.0,520.0,574.0,533.0,515.0,517.0,517.0,517.0,517.0,517.0,517.0,517.0,514.0,514.0,514.0,514.0,511.0,511.0,511.0,520.0,520.0,520.0,520.0,514.0,549.0,560.0,560.0,560.0,574.0,574.0,574.0,574.0,570.0,570.0,570.0,570.0,556.0,556.0,556.0,551.0,551.0,551.0,551.0,533.0,497.0,520.0,520.0,520.0,533.0,533.0,533.0,533.0,520.0,520.0,520.0,520.0,518.0,518.0,518.0,517.0,517.0,517.0,517.0,520.0
0,512.0,530.5777777777778,510.1111111111111,513.0,518.0,520.0,511.0,518.0,517.0,22.0,102.0,36.0,520.0,574.0,533.0,517.0,517.0,517.0,517.0,517.0,514.0,514.0,514.0,514.0,511.0,511.0,511.0,520.0,520.0,520.0,520.0,514.0,514.0,514.0,513.0,560.0,574.0,574.0,574.0,574.0,570.0,570.0,570.0,570.0,556.0,556.0,556.0,551.0,551.0,551.0,551.0,533.0,533.0,533.0,518.0,520.0,533.0,533.0,533.0,533.0,520.0,520.0,520.0,520.0,518.0,518.0,518.0,517.0,517.0,517.0,517.0,520.0,520.0,520.0,520.0
0,513.4444444444445,534.4888888888889,512.4,510.0,494.0,514.0,510.0,494.0,514.0,15.0,86.0,36.0,520.0,570.0,520.0,514.0,514.0,514.0,514.0,511.0,511.0,511.0,520.0,520.0,520.0,520.0,514.0,514.0,514.0,513.0,513.0,513.0,513.0,510.0,510.0,570.0,570.0,570.0,570.0,556.0,556.0,556.0,551.0,551.0,551.0,551.0,533.0,533.0,533.0,518.0,518.0,518.0,518.0,494.0,494.0,520.0,520.0,520.0,520.0,518.0,518.0,518.0,517.0,517.0,517.0,517.0,520.0,520.0,520.0,520.0,520.0,520.0,520.0,514.0,514.0
0,513.4666666666667,534.0666666666667,513.6666666666666,509.0,498.0,520.0,509.0,494.0,514.0,15.0,86.0,36.0,520.0,570.0,520.0,514.0,511.0,511.0,511.0,520.0,520.0,520.0,520.0,514.0,514.0,514.0,513.0,513.0,513.0,513.0,510.0,510.0,510.0,509.0,509.0,570.0,556.0,556.0,556.0,551.0,551.0,551.0,551.0,533.0,533.0,533.0,518.0,518.0,518.0,518.0,494.0,494.0,494.0,498.0,498.0,520.0,518.0,518.0,518.0,517.0,517.0,517.0,517.0,520.0,520.0,520.0,520.0,520.0,520.0,520.0,514.0,514.0,514.0,520.0,520.0
0,513.6666666666666,534.3333333333334,514.9555555555555,509.0,480.0,512.0,509.0,480.0,512.0,15.0,94.0,36.0,520.0,556.0,520.0,511.0,520.0,520.0,520.0,520.0,514.0,514.0,514.0,513.0,513.0,513.0,513.0,510.0,510.0,510.0,509.0,509.0,509.0,509.0,509.0,556.0,551.0,551.0,551.0,551.0,533.0,533.0,533.0,518.0,518.0,518.0,518.0,494.0,494.0,494.0,498.0,498.0,498.0,498.0,480.0,518.0,517.0,517.0,517.0,517.0,520.0,520.0,520.0,520.0,520.0,520.0,520.0,514.0,514.0,514.0,520.0,520.0,520.0,520.0,512.0
0,512.8666666666667,532.2444444444444,515.5111111111111,503.0,466.0,508.0,503.0,466.0,508.0,17.0,108.0,36.0,520.0,551.0,520.0,520.0,520.0,514.0,514.0,514.0,513.0,513.0,513.0,513.0,510.0,510.0,510.0,509.0,509.0,509.0,509.0,509.0,509.0,503.0,503.0,551.0,551.0,533.0,533.0,533.0,518.0,518.0,518.0,518.0,494.0,494.0,494.0,498.0,498.0,498.0,498.0,480.0,480.0,466.0,466.0,517.0,517.0,520.0,520.0,520.0,520.0,520.0,520.0,520.0,514.0,514.0,514.0,520.0,520.0,520.0,520.0,512.0,512.0,508.0,508.0
0,512.5111111111111,528.8444444444444,516.0444444444445,505.0,459.0,513.0,503.0,459.0,508.0,17.0,115.0,36.0,514.0,533.0,520.0,514.0,514.0,513.0,513.0,513.0,513.0,510.0,510.0,510.0,509.0,509.0,509.0,509.0,509.0,509.0,503.0,503.0,503.0,503.0,505.0,533.0,533.0,518.0,518.0,518.0,518.0,494.0,494.0,494.0,498.0,498.0,498.0,498.0,480.0,480.0,466.0,466.0,466.0,466.0,459.0,520.0,520.0,520.0,520.0,520.0,520.0,514.0,514.0,514.0,520.0,520.0,520.0,520.0,512.0,512.0,508.0,508.0,508.0,508.0,513.0
0,511.7111111111111,521.8666666666667,516.8222222222222,502.0,456.0,506.0,502.0,456.0,506.0,18.0,118.0,36.0,513.0,518.0,520.0,513.0,513.0,510.0,510.0,510.0,509.0,509.0,509.0,509.0,509.0,509.0,503.0,503.0,503.0,503.0,505.0,505.0,505.0,502.0,502.0,518.0,518.0,494.0,494.0,494.0,498.0,498.0,498.0,498.0,480.0,480.0,466.0,466.0,466.0,466.0,459.0,459.0,459.0,456.0,456.0,520.0,520.0,514.0,514.0,514.0,520.0,520.0,520.0,520.0,512.0,512.0,508.0,508.0,508.0,508.0,513.0,513.0,513.0,506.0,506.0
0,510.6222222222222,515.2,516.7777777777778,498.0,451.0,503.0,498.0,451.0,503.0,22.0,123.0,30.0,510.0,498.0,520.0,510.0,510.0,509.0,509.0,509.0,509.0,509.0,509.0,503.0,503.0,503.0,503.0,505.0,505.0,505.0,502.0,502.0,502.0,498.0,498.0,494.0,494.0,498.0,498.0,498.0,498.0,480.0,480.0,466.0,466.0,466.0,466.0,459.0,459.0,459.0,456.0,456.0,456.0,451.0,451.0,514.0,514.0,520.0,520.0,520.0,520.0,512.0,512.0,508.0,508.0,508.0,508.0,513.0,513.0,513.0,506.0,506.0,506.0,503.0,503.0
0,509.55555555555554,507.73333333333335,515.3777777777777,507.0,456.0,504.0,498.0,451.0,503.0,22.0,123.0,30.0,509.0,498.0,520.0,509.0,509.0,509.0,509.0,509.0,503.0,503.0,503.0,503.0,505.0,505.0,505.0,502.0,502.0,502.0,498.0,498.0,498.0,498.0,507.0,498.0,498.0,498.0,480.0,480.0,466.0,466.0,466.0,466.0,459.0,459.0,459.0,456.0,456.0,456.0,451.0,451.0,451.0,451.0,456.0,520.0,520.0,520.0,512.0,512.0,508.0,508.0,508.0,508.0,513.0,513.0,513.0,506.0,506.0,506.0,503.0,503.0,503.0,503.0,504.0
0,508.2888888888889,497.4222222222222,512.7333333333333,502.0,457.0,500.0,498.0,451.0,500.0,22.0,119.0,20.0,509.0,480.0,513.0,509.0,503.0,503.0,503.0,503.0,505.0,505.0,505.0,502.0,502.0,502.0,498.0,498.0,498.0,498.0,507.0,502.0,502.0,502.0,502.0,480.0,466.0,466.0,466.0,466.0,459.0,459.0,459.0,456.0,456.0,456.0,451.0,451.0,451.0,451.0,456.0,457.0,457.0,457.0,457.0,512.0,508.0,508.0,508.0,508.0,513.0,513.0,513.0,506.0,506.0,506.0,503.0,503.0,503.0,503.0,504.0,500.0,500.0,500.0,500.0
0,507.44444444444446,488.1111111111111,510.9555555555556,509.0,476.0,498.0,498.0,451.0,498.0,22.0,105.0,22.0,509.0,476.0,513.0,503.0,505.0,505.0,505.0,502.0,502.0,502.0,498.0,498.0,498.0,498.0,507.0,502.0,502.0,502.0,502.0,502.0,502.0,502.0,509.0,466.0,459.0,459.0,459.0,456.0,456.0,456.0,451.0,451.0,451.0,451.0,456.0,457.0,457.0,457.0,457.0,457.0,457.0,457.0,476.0,508.0,513.0,513.0,513.0,506.0,506.0,506.0,503.0,503.0,503.0,503.0,504.0,500.0,500.0,500.0,500.0,500.0,500.0,500.0,498.0
0,507.1333333333333,481.4888888888889,509.35555555555555,515.0,482.0,501.0,498.0,451.0,498.0,22.0,100.0,22.0,515.0,482.0,506.0,502.0,502.0,502.0,498.0,498.0,498.0,498.0,507.0,502.0,502.0,502.0,502.0,502.0,502.0,502.0,509.0,509.0,509.0,515.0,515.0,456.0,456.0,456.0,451.0,451.0,451.0,451.0,456.0,457.0,457.0,457.0,457.0,457.0,457.0,457.0,476.0,476.0,476.0,482.0,482.0,506.0,506.0,506.0,503.0,503.0,503.0,503.0,504.0,500.0,500.0,500.0,500.0,500.0,500.0,500.0,498.0,498.0,498.0,501.0,501.0
0,506.84444444444443,478.8,508.5777777777778,512.0,499.0,498.0,498.0,451.0,498.0,17.0,82.0,22.0,515.0,499.0,506.0,502.0,498.0,498.0,498.0,498.0,507.0,502.0,502.0,502.0,502.0,502.0,502.0,502.0,509.0,509.0,509.0,515.0,515.0,515.0,512.0,456.0,451.0,451.0,451.0,451.0,456.0,457.0,457.0,457.0,457.0,457.0,457.0,457.0,476.0,476.0,476.0,482.0,482.0,482.0,499.0,506.0,503.0,503.0,503.0,503.0,504.0,500.0,500.0,500.0,500.0,500.0,500.0,500.0,498.0,498.0,498.0,501.0,501.0,501.0,498.0
0,506.46666666666664,477.4888888888889,506.6222222222222,507.0,530.0,498.0,498.0,451.0,498.0,17.0,79.0,22.0,515.0,530.0,504.0,498.0,507.0,502.0,502.0,502.0,502.0,502.0,502.0,502.0,509.0,509.0,509.0,515.0,515.0,515.0,512.0,512.0,512.0,507.0,507.0,451.0,456.0,457.0,457.0,457.0,457.0,457.0,457.0,457.0,476.0,476.0,476.0,482.0,482.0,482.0,499.0,499.0,499.0,530.0,530.0,503.0,504.0,500.0,500.0,500.0,500.0,500.0,500.0,500.0,498.0,498.0,498.0,501.0,501.0,501.0,498.0,498.0,498.0,498.0,498.0
0,506.2,479.7111111111111,504.4888888888889,513.0,526.0,499.0,502.0,457.0,498.0,17.0,79.0,22.0,515.0,530.0,501.0,502.0,502.0,502.0,502.0,509.0,509.0,509.0,515.0,515.0,515.0,512.0,512.0,512.0,507.0,507.0,507.0,507.0,507.0,513.0,513.0,457.0,457.0,457.0,457.0,476.0,476.0,476.0,482.0,482.0,482.0,499.0,499.0,499.0,530.0,530.0,530.0,530.0,530.0,526.0,526.0,500.0,500.0,500.0,500.0,498.0,498.0,498.0,501.0,501.0,501.0,498.0,498.0,498.0,498.0,498.0,498.0,498.0,498.0,499.0,499.0
0,506.6666666666667,483.53333333333336,503.4222222222222,516.0,554.0,514.0,507.0,476.0,498.0,18.0,103.0,22.0,516.0,554.0,514.0,509.0,509.0,509.0,515.0,515.0,515.0,512.0,512.0,512.0,507.0,507.0,507.0,507.0,507.0,513.0,513.0,513.0,513.0,516.0,516.0,476.0,476.0,476.0,482.0,482.0,482.0,499.0,499.0,499.0,530.0,530.0,530.0,530.0,530.0,526.0,526.0,526.0,526.0,554.0,554.0,498.0,498.0,498.0,501.0,501.0,501.0,498.0,498.0,498.0,498.0,498.0,498.0,498.0,498.0,499.0,499.0,499.0,499.0,514.0,514.0
0,506.97777777777776,486.4222222222222,503.3333333333333,516.0,554.0,514.0,507.0,476.0,498.0,18.0,103.0,16.0,516.0,554.0,514.0,509.0,515.0,515.0,515.0,512.0,512.0,512.0,507.0,507.0,507.0,507.0,507.0,513.0,513.0,513.0,513.0,516.0,516.0,516.0,516.0,476.0,482.0,482.0,482.0,499.0,499.0,499.0,530.0,530.0,530.0,530.0,530.0,526.0,526.0,526.0,526.0,554.0,554.0,554.0,554.0,498.0,501.0,501.0,501.0,498.0,498.0,498.0,498.0,498.0,498.0,498.0,498.0,499.0,499.0,499.0,499.0,514.0,514.0,514.0,514.0
0,508.6222222222222,496.4,503.7111111111111,513.0,564.0,511.0,507.0,499.0,498.0,25.0,113.0,16.0,523.0,564.0,514.0,512.0,512.0,507.0,507.0,507.0,507.0,507.0,513.0,513.0,513.0,513.0,516.0,516.0,516.0,516.0,523.0,523.0,523.0,513.0,513.0,499.0,499.0,530.0,530.0,530.0,530.0,530.0,526.0,526.0,526.0,526.0,554.0,554.0,554.0,554.0,555.0,555.0,555.0,564.0,564.0,498.0,498.0,498.0,498.0,498.0,498.0,498.0,499.0,499.0,499.0,499.0,514.0,514.0,514.0,514.0,513.0,513.0,513.0,511.0,511.0
0,509.2,503.3333333333333,503.68888888888887,515.0,561.0,516.0,507.0,526.0,498.0,25.0,113.0,18.0,523.0,564.0,516.0,507.0,507.0,507.0,513.0,513.0,513.0,513.0,516.0,516.0,516.0,516.0,523.0,523.0,523.0,513.0,513.0,513.0,513.0,515.0,515.0,530.0,530.0,530.0,526.0,526.0,526.0,526.0,554.0,554.0,554.0,554.0,555.0,555.0,555.0,564.0,564.0,564.0,564.0,561.0,561.0,498.0,498.0,498.0,499.0,499.0,499.0,499.0,514.0,514.0,514.0,514.0,513.0,513.0,513.0,511.0,511.0,511.0,511.0,516.0,516.0
0,510.44444444444446,512.7777777777778,504.64444444444445,515.0,561.0,516.0,513.0,526.0,499.0,25.0,113.0,18.0,523.0,564.0,516.0,513.0,513.0,513.0,513.0,516.0,516.0,516.0,516.0,523.0,523.0,523.0,513.0,513.0,513.0,513.0,515.0,515.0,515.0,515.0,515.0,526.0,526.0,526.0,526.0,554.0,554.0,554.0,554.0,555.0,555.0,555.0,564.0,564.0,564.0,564.0,561.0,561.0,561.0,561.0,561.0,499.0,499.0,499.0,499.0,514.0,514.0,514.0,514.0,513.0,513.0,513.0,511.0,511.0,511.0,511.0,516.0,516.0,516.0,516.0,516.0
0,511.7111111111111,522.3555555555556,505.8,516.0,548.0,520.0,513.0,548.0,511.0,21.0,107.0,22.0,523.0,564.0,520.0,516.0,516.0,516.0,516.0,523.0,523.0,523.0,513.0,513.0,513.0,513.0,515.0,515.0,515.0,515.0,515.0,514.0,514.0,514.0,516.0,554.0,554.0,554.0,554.0,555.0,555.0,555.0,564.0,564.0,564.0,564.0,561.0,561.0,561.0,561.0,561.0,564.0,564.0,564.0,548.0,514.0,514.0,514.0,514.0,513.0,513.0,513.0,511.0,511.0,511.0,511.0,516.0,516.0,516.0,516.0,516.0,515.0,515.0,515.0,520.0
0,512.2888888888889,526.2666666666667,506.93333333333334,514.0,542.0,531.0,513.0,542.0,511.0,21.0,107.0,33.0,523.0,564.0,531.0,516.0,516.0,523.0,523.0,523.0,513.0,513.0,513.0,513.0,515.0,515.0,515.0,515.0,515.0,514.0,514.0,514.0,516.0,516.0,514.0,554.0,554.0,555.0,555.0,555.0,564.0,564.0,564.0,564.0,561.0,561.0,561.0,561.0,561.0,564.0,564.0,564.0,548.0,548.0,542.0,514.0,514.0,513.0,513.0,513.0,511.0,511.0,511.0,511.0,516.0,516.0,516.0,516.0,516.0,515.0,515.0,515.0,520.0,520.0,531.0
0,513.2666666666667,532.8888888888889,509.8222222222222,512.0,521.0,534.0,512.0,521.0,511.0,21.0,107.0,36.0,523.0,564.0,534.0,523.0,513.0,513.0,513.0,513.0,515.0,515.0,515.0,515.0,515.0,514.0,514.0,514.0,516.0,516.0,514.0,514.0,514.0,512.0,512.0,555.0,564.0,564.0,564.0,564.0,561.0,561.0,561.0,561.0,561.0,564.0,564.0,564.0,548.0,548.0,542.0,542.0,542.0,521.0,521.0,513.0,511.0,511.0,511.0,511.0,516.0,516.0,516.0,516.0,516.0,515.0,515.0,515.0,520.0,520.0,531.0,531.0,531.0,534.0,534.0
0,512.9555555555555,535.9555555555555,512.1333333333333,497.0,513.0,533.0,497.0,513.0,511.0,26.0,88.0,36.0,516.0,564.0,534.0,513.0,513.0,515.0,515.0,515.0,515.0,515.0,514.0,514.0,514.0,516.0,516.0,514.0,514.0,514.0,512.0,512.0,512.0,497.0,497.0,564.0,564.0,561.0,561.0,561.0,561.0,561.0,564.0,564.0,564.0,548.0,548.0,542.0,542.0,542.0,521.0,521.0,521.0,513.0,513.0,511.0,511.0,516.0,516.0,516.0,516.0,516.0,515.0,515.0,515.0,520.0,520.0,531.0,531.0,531.0,534.0,534.0,534.0,533.0,533.0
0,511.75555555555553,539.1333333333333,513.9333333333333,494.0,535.0,524.0,494.0,513.0,515.0,29.0,82.0,36.0,516.0,564.0,534.0,515.0,515.0,515.0,515.0,514.0,514.0,514.0,516.0,516.0,514.0,514.0,514.0,512.0,512.0,512.0,497.0,497.0,497.0,494.0,494.0,561.0,561.0,561.0,561.0,564.0,564.0,564.0,548.0,548.0,542.0,542.0,542.0,521.0,521.0,521.0,513.0,513.0,513.0,535.0,535.0,516.0,516.0,516.0,516.0,515.0,515.0,515.0,520.0,520.0,531.0,531.0,531.0,534.0,534.0,534.0,533.0,533.0,533.0,524.0,524.0
0,510.4888888888889,541.9111111111112,515.6,494.0,535.0,524.0,494.0,513.0,515.0,29.0,65.0,36.0,516.0,564.0,534.0,515.0,514.0,514.0,514.0,516.0,516.0,514.0,514.0,514.0,512.0,512.0,512.0,497.0,497.0,497.0,494.0,494.0,494.0,494.0,494.0,561.0,564.0,564.0,564.0,548.0,548.0,542.0,542.0,542.0,521.0,521.0,521.0,513.0,513.0,513.0,535.0,535.0,535.0,535.0,535.0,516.0,515.0,515.0,515.0,520.0,520.0,531.0,531.0,531.0,534.0,534.0,534.0,533.0,533.0,533.0,524.0,524.0,524.0,524.0,524.0
0,510.2888888888889,539.4222222222222,517.2222222222222,505.0,476.0,525.0,494.0,476.0,515.0,29.0,88.0,36.0,516.0,564.0,534.0,514.0,516.0,516.0,514.0,514.0,514.0,512.0,512.0,512.0,497.0,497.0,497.0,494.0,494.0,494.0,494.0,494.0,507.0,505.0,505.0,564.0,548.0,548.0,542.0,542.0,542.0,521.0,521.0,521.0,513.0,513.0,513.0,535.0,535.0,535.0,535.0,535.0,495.0,476.0,476.0,515.0,520.0,520.0,531.0,531.0,531.0,534.0,534.0,534.0,533.0,533.0,533.0,524.0,524.0,524.0,524.0,524.0,517.0,525.0,525.0
0,510.24444444444447,534.7555555555556,518.4888888888889,507.0,452.0,513.0,494.0,452.0,513.0,29.0,112.0,35.0,514.0,542.0,534.0,514.0,514.0,514.0,512.0,512.0,512.0,497.0,497.0,497.0,494.0,494.0,494.0,494.0,494.0,507.0,505.0,505.0,505.0,507.0,507.0,542.0,542.0,542.0,521.0,521.0,521.0,513.0,513.0,513.0,535.0,535.0,535.0,535.0,535.0,495.0,476.0,476.0,476.0,452.0,452.0,531.0,531.0,531.0,534.0,534.0,534.0,533.0,533.0,533.0,524.0,524.0,524.0,524.0,524.0,517.0,525.0,525.0,525.0,513.0,513.0
0,509.93333333333334,528.0444444444445,519.4666666666667,512.0,449.0,507.0,494.0,449.0,507.0,29.0,115.0,27.0,512.0,535.0,534.0,512.0,512.0,497.0,497.0,497.0,494.0,494.0,494.0,494.0,494.0,507.0,505.0,505.0,505.0,507.0,507.0,507.0,507.0,512.0,512.0,521.0,521.0,513.0,513.0,513.0,535.0,535.0,535.0,535.0,535.0,495.0,476.0,476.0,476.0,452.0,452.0,452.0,452.0,449.0,449.0,534.0,534.0,533.0,533.0,533.0,524.0,524.0,524.0,524.0,524.0,517.0,525.0,525.0,525.0,513.0,513.0,513.0,513.0,507.0,507.0
0,509.4,521.1333333333333,518.8222222222222,506.0,451.0,503.0,494.0,449.0,503.0,29.0,115.0,31.0,512.0,535.0,533.0,497.0,497.0,494.0,494.0,494.0,494.0,494.0,507.0,505.0,505.0,505.0,507.0,507.0,507.0,507.0,512.0,512.0,512.0,506.0,506.0,513.0,513.0,535.0,535.0,535.0,535.0,535.0,495.0,476.0,476.0,476.0,452.0,452.0,452.0,452.0,449.0,449.0,449.0,451.0,451.0,533.0,533.0,524.0,524.0,524.0,524.0,524.0,517.0,525.0,525.0,525.0,513.0,513.0,513.0,513.0,507.0,507.0,507.0,503.0,503.0
0,508.8,516.5777777777778,518.1111111111111,506.0,453.0,492.0,494.0,449.0,492.0,29.0,115.0,42.0,512.0,535.0,525.0,494.0,494.0,494.0,494.0,494.0,507.0,505.0,505.0,505.0,507.0,507.0,507.0,507.0,512.0,512.0,512.0,506.0,506.0,506.0,506.0,535.0,535.0,535.0,535.0,535.0,495.0,476.0,476.0,476.0,452.0,452.0,452.0,452.0,449.0,449.0,449.0,451.0,451.0,451.0,453.0,524.0,524.0,524.0,524.0,524.0,517.0,525.0,525.0,525.0,513.0,513.0,513.0,513.0,507.0,507.0,507.0,503.0,503.0,503.0,492.0
0,507.75555555555553,509.84444444444443,516.5777777777778,503.0,459.0,488.0,494.0,449.0,488.0,22.0,115.0,46.0,512.0,535.0,525.0,494.0,494.0,507.0,505.0,505.0,505.0,507.0,507.0,507.0,507.0,512.0,512.0,512.0,506.0,506.0,506.0,506.0,506.0,503.0,503.0,535.0,535.0,495.0,476.0,476.0,476.0,452.0,452.0,452.0,452.0,449.0,449.0,449.0,451.0,451.0,451.0,453.0,453.0,459.0,459.0,524.0,524.0,517.0,525.0,525.0,525.0,513.0,513.0,513.0,513.0,507.0,507.0,507.0,503.0,503.0,503.0,492.0,492.0,488.0,488.0
0,506.9555555555556,501.1111111111111,514.6444444444444,506.0,471.0,493.0,503.0,449.0,488.0,22.0,115.0,46.0,512.0,476.0,525.0,505.0,505.0,507.0,507.0,507.0,507.0,512.0,512.0,512.0,506.0,506.0,506.0,506.0,506.0,503.0,503.0,503.0,503.0,506.0,506.0,476.0,476.0,452.0,452.0,452.0,452.0,449.0,449.0,449.0,451.0,451.0,451.0,453.0,453.0,459.0,459.0,459.0,459.0,471.0,471.0,525.0,525.0,513.0,513.0,513.0,513.0,507.0,507.0,507.0,503.0,503.0,503.0,492.0,492.0,488.0,488.0,488.0,488.0,493.0,493.0
0,506.24444444444447,493.46666666666664,512.2,508.0,479.0,484.0,503.0,449.0,484.0,22.0,115.0,50.0,512.0,479.0,513.0,507.0,507.0,512.0,512.0,512.0,506.0,506.0,506.0,506.0,506.0,503.0,503.0,503.0,503.0,506.0,506.0,506.0,506.0,508.0,508.0,452.0,452.0,449.0,449.0,449.0,451.0,451.0,451.0,453.0,453.0,459.0,459.0,459.0,459.0,471.0,471.0,471.0,471.0,479.0,479.0,513.0,513.0,507.0,507.0,507.0,503.0,503.0,503.0,492.0,492.0,488.0,488.0,488.0,488.0,493.0,493.0,493.0,493.0,484.0,484.0
0,505.84444444444443,487.8,510.1333333333333,508.0,479.0,484.0,503.0,449.0,484.0,22.0,99.0,50.0,512.0,479.0,507.0,512.0,512.0,506.0,506.0,506.0,506.0,506.0,503.0,503.0,503.0,503.0,506.0,506.0,506.0,506.0,508.0,508.0,508.0,508.0,508.0,449.0,449.0,451.0,451.0,451.0,453.0,453.0,459.0,459.0,459.0,459.0,471.0,471.0,471.0,471.0,479.0,479.0,479.0,479.0,479.0,507.0,507.0,503.0,503.0,503.0,492.0,492.0,488.0,488.0,488.0,488.0,493.0,493.0,493.0,493.0,484.0,484.0,484.0,484.0,484.0
0,505.6222222222222,484.2888888888889,506.8888888888889,512.0,514.0,489.0,503.0,451.0,484.0,20.0,93.0,50.0,513.0,514.0,503.0,506.0,506.0,506.0,503.0,503.0,503.0,503.0,506.0,506.0,506.0,506.0,508.0,508.0,508.0,508.0,508.0,513.0,513.0,512.0,512.0,451.0,453.0,453.0,459.0,459.0,459.0,459.0,471.0,471.0,471.0,471.0,479.0,479.0,479.0,479.0,479.0,497.0,497.0,514.0,514.0,503.0,492.0,492.0,488.0,488.0,488.0,488.0,493.0,493.0,493.0,493.0,484.0,484.0,484.0,484.0,484.0,489.0,489.0,489.0,489.0
0,505.1777777777778,483.6222222222222,504.53333333333336,503.0,520.0,502.0,503.0,459.0,484.0,19.0,86.0,50.0,513.0,520.0,502.0,503.0,503.0,503.0,503.0,506.0,506.0,506.0,506.0,508.0,508.0,508.0,508.0,508.0,513.0,513.0,512.0,512.0,512.0,503.0,503.0,459.0,459.0,459.0,459.0,471.0,471.0,471.0,471.0,479.0,479.0,479.0,479.0,479.0,497.0,497.0,514.0,514.0,514.0,520.0,520.0,488.0,488.0,488.0,488.0,493.0,493.0,493.0,493.0,484.0,484.0,484.0,484.0,484.0,489.0,489.0,489.0,489.0,489.0,502.0,502.0
0,505.73333333333335,484.4,502.6666666666667,514.0,531.0,507.0,503.0,459.0,484.0,20.0,86.0,49.0,514.0,531.0,507.0,503.0,506.0,506.0,506.0,506.0,508.0,508.0,508.0,508.0,508.0,513.0,513.0,512.0,512.0,512.0,503.0,503.0,503.0,514.0,514.0,459.0,471.0,471.0,471.0,471.0,479.0,479.0,479.0,479.0,479.0,497.0,497.0,514.0,514.0,514.0,520.0,520.0,520.0,531.0,531.0,488.0,493.0,493.0,493.0,493.0,484.0,484.0,484.0,484.0,484.0,489.0,489.0,489.0,489.0,489.0,502.0,502.0,502.0,507.0,507.0
0,507.1777777777778,485.9555555555556,501.55555555555554,518.0,561.0,512.0,503.0,471.0,484.0,24.0,112.0,41.0,518.0,561.0,512.0,506.0,506.0,508.0,508.0,508.0,508.0,508.0,513.0,513.0,512.0,512.0,512.0,503.0,503.0,503.0,514.0,514.0,514.0,518.0,518.0,471.0,471.0,479.0,479.0,479.0,479.0,479.0,497.0,497.0,514.0,514.0,514.0,520.0,520.0,520.0,531.0,531.0,531.0,561.0,561.0,493.0,493.0,484.0,484.0,484.0,484.0,484.0,489.0,489.0,489.0,489.0,489.0,502.0,502.0,502.0,507.0,507.0,507.0,512.0,512.0
0,508.68888888888887,487.6666666666667,500.77777777777777,514.0,560.0,513.0,503.0,479.0,484.0,15.0,112.0,41.0,518.0,561.0,513.0,508.0,508.0,508.0,508.0,513.0,513.0,512.0,512.0,512.0,503.0,503.0,503.0,514.0,514.0,514.0,518.0,518.0,518.0,518.0,514.0,479.0,479.0,479.0,479.0,497.0,497.0,514.0,514.0,514.0,520.0,520.0,520.0,531.0,531.0,531.0,561.0,561.0,561.0,561.0,560.0,484.0,484.0,484.0,484.0,489.0,489.0,489.0,489.0,489.0,502.0,502.0,502.0,507.0,507.0,507.0,512.0,512.0,512.0,512.0,513.0
0,509.4888888888889,495.15555555555557,499.97777777777776,515.0,570.0,515.0,503.0,497.0,489.0,15.0,121.0,31.0,518.0,570.0,515.0,513.0,513.0,512.0,512.0,512.0,503.0,503.0,503.0,514.0,514.0,514.0,518.0,518.0,518.0,518.0,514.0,514.0,514.0,515.0,515.0,497.0,497.0,514.0,514.0,514.0,520.0,520.0,520.0,531.0,531.0,531.0,561.0,561.0,561.0,561.0,560.0,560.0,560.0,570.0,570.0,489.0,489.0,489.0,489.0,489.0,502.0,502.0,502.0,507.0,507.0,507.0,512.0,512.0,512.0,512.0,513.0,513.0,513.0,515.0,515.0
0,510.06666666666666,505.64444444444445,500.55555555555554,512.0,570.0,524.0,503.0,514.0,489.0,15.0,121.0,40.0,518.0,570.0,524.0,512.0,503.0,503.0,503.0,514.0,514.0,514.0,518.0,518.0,518.0,518.0,514.0,514.0,514.0,515.0,515.0,515.0,515.0,512.0,512.0,514.0,520.0,520.0,520.0,531.0,531.0,531.0,561.0,561.0,561.0,561.0,560.0,560.0,560.0,570.0,570.0,570.0,570.0,570.0,570.0,489.0,502.0,502.0,502.0,507.0,507.0,507.0,512.0,512.0,512.0,512.0,513.0,513.0,513.0,515.0,515.0,515.0,515.0,524.0,524.0
0,510.26666666666665,516.0222222222222,502.2888888888889,515.0,555.0,530.0,512.0,531.0,507.0,15.0,119.0,46.0,518.0,570.0,530.0,514.0,514.0,514.0,518.0,518.0,518.0,518.0,514.0,514.0,514.0,515.0,515.0,515.0,515.0,512.0,512.0,512.0,512.0,512.0,515.0,531.0,531.0,531.0,561.0,561.0,561.0,561.0,560.0,560.0,560.0,570.0,570.0,570.0,570.0,570.0,570.0,570.0,570.0,570.0,555.0,507.0,507.0,507.0,512.0,512.0,512.0,512.0,513.0,513.0,513.0,515.0,515.0,515.0,515.0,524.0,524.0,524.0,524.0,524.0,530.0
0,510.8666666666667,522.6444444444444,504.24444444444447,515.0,543.0,526.0,512.0,543.0,512.0,15.0,117.0,46.0,518.0,570.0,530.0,518.0,518.0,518.0,518.0,514.0,514.0,514.0,515.0,515.0,515.0,515.0,512.0,512.0,512.0,512.0,512.0,515.0,515.0,515.0,515.0,561.0,561.0,561.0,561.0,560.0,560.0,560.0,570.0,570.0,570.0,570.0,570.0,570.0,570.0,570.0,570.0,555.0,555.0,555.0,543.0,512.0,512.0,512.0,512.0,513.0,513.0,513.0,515.0,515.0,515.0,515.0,524.0,524.0,524.0,524.0,524.0,530.0,530.0,530.0,526.0
0,511.24444444444447,528.2,506.9555555555556,507.0,539.0,532.0,507.0,539.0,512.0,15.0,111.0,48.0,518.0,570.0,532.0,518.0,514.0,514.0,514.0,515.0,515.0,515.0,515.0,512.0,512.0,512.0,512.0,512.0,515.0,515.0,515.0,515.0,515.0,507.0,507.0,561.0,560.0,560.0,560.0,570.0,570.0,570.0,570.0,570.0,570.0,570.0,570.0,570.0,555.0,555.0,555.0,543.0,543.0,539.0,539.0,512.0,513.0,513.0,513.0,515.0,515.0,515.0,515.0,524.0,524.0,524.0,524.0,524.0,530.0,530.0,530.0,526.0,526.0,532.0,532.0
0,511.53333333333336,532.8666666666667,509.6666666666667,511.0,521.0,527.0,507.0,521.0,513.0,15.0,99.0,48.0,515.0,570.0,532.0,514.0,515.0,515.0,515.0,515.0,512.0,512.0,512.0,512.0,512.0,515.0,515.0,515.0,515.0,515.0,507.0,507.0,507.0,507.0,511.0,560.0,570.0,570.0,570.0,570.0,570.0,570.0,570.0,570.0,570.0,555.0,555.0,555.0,543.0,543.0,539.0,539.0,539.0,539.0,521.0,513.0,515.0,515.0,515.0,515.0,524.0,524.0,524.0,524.0,524.0,530.0,530.0,530.0,526.0,526.0,532.0,532.0,532.0,532.0,527.0
0,511.8,536.4222222222222,512.4888888888889,508.0,505.0,518.0,507.0,505.0,515.0,15.0,91.0,48.0,515.0,570.0,532.0,515.0,512.0,512.0,512.0,512.0,512.0,515.0,515.0,515.0,515.0,515.0,507.0,507.0,507.0,507.0,511.0,511.0,511.0,508.0,508.0,570.0,570.0,570.0,570.0,570.0,570.0,555.0,555.0,555.0,543.0,543.0,539.0,539.0,539.0,539.0,521.0,521.0,521.0,505.0,505.0,515.0,524.0,524.0,524.0,524.0,524.0,530.0,530.0,530.0,526.0,526.0,532.0,532.0,532.0,532.0,527.0,527.0,527.0,518.0,518.0
0,511.8,537.5777777777778,514.0,508.0,505.0,518.0,507.0,505.0,518.0,15.0,91.0,48.0,515.0,570.0,532.0,512.0,512.0,512.0,512.0,515.0,515.0,515.0,515.0,515.0,507.0,507.0,507.0,507.0,511.0,511.0,508.0,508.0,508.0,508.0,504.0,570.0,570.0,570.0,570.0,555.0,555.0,555.0,543.0,543.0,539.0,539.0,539.0,539.0,521.0,521.0,505.0,505.0,505.0,505.0,495.0,524.0,524.0,524.0,524.0,530.0,530.0,530.0,526.0,526.0,532.0,532.0,532.0,532.0,527.0,527.0,518.0,518.0,518.0,518.0,518.0
0,511.1333333333333,537.2666666666667,516.4888888888889,502.0,474.0,511.0,502.0,474.0,511.0,16.0,96.0,43.0,515.0,555.0,532.0,515.0,515.0,515.0,515.0,515.0,507.0,507.0,507.0,507.0,511.0,511.0,511.0,508.0,508.0,508.0,508.0,504.0,504.0,502.0,502.0,555.0,555.0,555.0,543.0,543.0,539.0,539.0,539.0,539.0,521.0,521.0,521.0,505.0,505.0,505.0,505.0,495.0,495.0,474.0,474.0,530.0,530.0,530.0,526.0,526.0,532.0,532.0,532.0,532.0,527.0,527.0,527.0,518.0,518.0,518.0,518.0,518.0,518.0,511.0,511.0
0,510.9111111111111,536.3777777777777,516.9777777777778,502.0,474.0,511.0,502.0,474.0,511.0,16.0,96.0,43.0,515.0,555.0,532.0,515.0,515.0,515.0,515.0,507.0,507.0,507.0,507.0,511.0,511.0,511.0,508.0,508.0,508.0,508.0,504.0,504.0,502.0,502.0,502.0,555.0,555.0,543.0,543.0,539.0,539.0,539.0,539.0,521.0,521.0,521.0,505.0,505.0,505.0,505.0,495.0,495.0,474.0,474.0,474.0,530.0,530.0,526.0,526.0,532.0,532.0,532.0,532.0,527.0,527.0,527.0,518.0,518.0,518.0,518.0,518.0,518.0,511.0,511.0,511.0
0,510.6,531.1333333333333,517.0666666666667,505.0,455.0,496.0,502.0,455.0,496.0,16.0,115.0,36.0,511.0,539.0,532.0,507.0,507.0,507.0,507.0,511.0,511.0,511.0,508.0,508.0,508.0,508.0,504.0,504.0,502.0,502.0,502.0,503.0,503.0,505.0,505.0,539.0,539.0,539.0,539.0,521.0,521.0,521.0,505.0,505.0,505.0,505.0,495.0,495.0,474.0,474.0,474.0,461.0,461.0,455.0,455.0,532.0,532.0,532.0,532.0,527.0,527.0,527.0,518.0,518.0,518.0,518.0,518.0,518.0,511.0,511.0,511.0,497.0,497.0,496.0,496.0
0,509.9555555555556,525.0666666666667,516.6888888888889,503.0,465.0,507.0,502.0,455.0,496.0,16.0,115.0,36.0,511.0,521.0,527.0,511.0,511.0,511.0,508.0,508.0,508.0,508.0,504.0,504.0,502.0,502.0,502.0,503.0,503.0,505.0,505.0,505.0,505.0,503.0,503.0,521.0,521.0,521.0,505.0,505.0,505.0,505.0,495.0,495.0,474.0,474.0,474.0,461.0,461.0,455.0,455.0,455.0,455.0,465.0,465.0,527.0,527.0,527.0,518.0,518.0,518.0,518.0,518.0,518.0,511.0,511.0,511.0,497.0,497.0,496.0,496.0,496.0,496.0,507.0,507.0
0,509.2888888888889,520.8,516.4666666666667,503.0,465.0,507.0,502.0,455.0,496.0,16.0,115.0,36.0,511.0,521.0,527.0,511.0,508.0,508.0,508.0,508.0,504.0,504.0,502.0,502.0,502.0,503.0,503.0,505.0,505.0,505.0,505.0,503.0,503.0,503.0,498.0,521.0,505.0,505.0,505.0,505.0,495.0,495.0,474.0,474.0,474.0,461.0,461.0,455.0,455.0,455.0,455.0,465.0,465.0,465.0,459.0,527.0,518.0,518.0,518.0,518.0,518.0,518.0,511.0,511.0,511.0,497.0,497.0,496.0,496.0,496.0,496.0,507.0,507.0,507.0,503.0
0,507.8222222222222,511.75555555555553,515.5333333333333,504.0,458.0,499.0,498.0,455.0,496.0,17.0,115.0,36.0,508.0,505.0,518.0,508.0,504.0,504.0,502.0,502.0,502.0,503.0,503.0,505.0,505.0,505.0,505.0,503.0,503.0,503.0,503.0,498.0,498.0,498.0,504.0,505.0,495.0,495.0,474.0,474.0,474.0,461.0,461.0,455.0,455.0,455.0,455.0,465.0,465.0,465.0,465.0,459.0,459.0,459.0,458.0,518.0,518.0,518.0,511.0,511.0,511.0,497.0,497.0,496.0,496.0,496.0,496.0,507.0,507.0,507.0,507.0,503.0,503.0,503.0,499.0
0,507.2,504.9111111111111,514.3333333333334,506.0,467.0,495.0,498.0,455.0,495.0,17.0,115.0,37.0,506.0,474.0,511.0,502.0,502.0,502.0,503.0,503.0,505.0,505.0,505.0,505.0,503.0,503.0,503.0,503.0,498.0,498.0,498.0,504.0,504.0,506.0,506.0,474.0,474.0,474.0,461.0,461.0,455.0,455.0,455.0,455.0,465.0,465.0,465.0,465.0,459.0,459.0,459.0,458.0,458.0,467.0,467.0,511.0,511.0,511.0,497.0,497.0,496.0,496.0,496.0,496.0,507.0,507.0,507.0,507.0,503.0,503.0,503.0,499.0,499.0,495.0,495.0
0,506.6,498.22222222222223,512.8222222222222,503.0,475.0,496.0,498.0,455.0,495.0,17.0,115.0,37.0,506.0,475.0,507.0,503.0,503.0,505.0,505.0,505.0,505.0,503.0,503.0,503.0,503.0,498.0,498.0,498.0,504.0,504.0,506.0,506.0,506.0,503.0,503.0,461.0,461.0,455.0,455.0,455.0,455.0,465.0,465.0,465.0,465.0,459.0,459.0,459.0,458.0,458.0,467.0,467.0,467.0,475.0,475.0,497.0,497.0,496.0,496.0,496.0,496.0,507.0,507.0,507.0,507.0,503.0,503.0,503.0,499.0,499.0,495.0,495.0,495.0,496.0,496.0
0,505.93333333333334,490.8,510.02222222222224,506.0,498.0,489.0,498.0,455.0,489.0,17.0,100.0,43.0,506.0,498.0,507.0,505.0,505.0,503.0,503.0,503.0,503.0,498.0,498.0,498.0,504.0,504.0,506.0,506.0,506.0,506.0,503.0,503.0,503.0,506.0,506.0,455.0,455.0,465.0,465.0,465.0,465.0,459.0,459.0,459.0,458.0,458.0,467.0,467.0,467.0,467.0,475.0,475.0,475.0,498.0,498.0,496.0,496.0,507.0,507.0,507.0,507.0,503.0,503.0,503.0,499.0,499.0,495.0,495.0,495.0,495.0,496.0,496.0,496.0,489.0,489.0
0,505.6,487.4888888888889,507.2888888888889,512.0,509.0,489.0,498.0,458.0,489.0,17.0,88.0,43.0,512.0,509.0,507.0,503.0,503.0,503.0,498.0,498.0,498.0,504.0,504.0,506.0,506.0,506.0,506.0,503.0,503.0,503.0,506.0,506.0,506.0,512.0,512.0,465.0,465.0,465.0,459.0,459.0,459.0,458.0,458.0,467.0,467.0,467.0,467.0,475.0,475.0,475.0,498.0,498.0,498.0,509.0,509.0,507.0,507.0,507.0,503.0,503.0,503.0,499.0,499.0,495.0,495.0,495.0,495.0,496.0,496.0,496.0,489.0,489.0,489.0,489.0,489.0
0,505.68888888888887,485.5777777777778,503.77777777777777,512.0,530.0,490.0,498.0,458.0,489.0,14.0,84.0,43.0,512.0,530.0,503.0,498.0,498.0,504.0,504.0,506.0,506.0,506.0,506.0,503.0,503.0,503.0,506.0,506.0,506.0,512.0,512.0,512.0,512.0,512.0,512.0,459.0,459.0,458.0,458.0,467.0,467.0,467.0,467.0,475.0,475.0,475.0,498.0,498.0,498.0,509.0,509.0,509.0,509.0,530.0,530.0,503.0,503.0,499.0,499.0,495.0,495.0,495.0,495.0,496.0,496.0,496.0,489.0,489.0,489.0,489.0,489.0,489.0,489.0,490.0,490.0
0,506.0,485.15555555555557,501.97777777777776,516.0,529.0,493.0,503.0,458.0,489.0,18.0,75.0,38.0,516.0,530.0,499.0,504.0,504.0,506.0,506.0,506.0,506.0,503.0,503.0,503.0,506.0,506.0,506.0,512.0,512.0,512.0,512.0,512.0,512.0,512.0,516.0,458.0,458.0,467.0,467.0,467.0,467.0,475.0,475.0,475.0,498.0,498.0,498.0,509.0,509.0,509.0,509.0,530.0,530.0,530.0,529.0,499.0,499.0,495.0,495.0,495.0,495.0,496.0,496.0,496.0,489.0,489.0,489.0,489.0,489.0,489.0,489.0,490.0,490.0,490.0,493.0
0,506.55555555555554,487.1111111111111,499.64444444444445,517.0,549.0,504.0,503.0,467.0,489.0,19.0,94.0,29.0,517.0,549.0,504.0,506.0,506.0,503.0,503.0,503.0,506.0,506.0,506.0,512.0,512.0,512.0,512.0,512.0,512.0,512.0,516.0,516.0,516.0,517.0,517.0,467.0,467.0,475.0,475.0,475.0,498.0,498.0,498.0,509.0,509.0,509.0,509.0,530.0,530.0,530.0,529.0,529.0,529.0,549.0,549.0,495.0,495.0,496.0,496.0,496.0,489.0,489.0,489.0,489.0,489.0,489.0,489.0,490.0,490.0,490.0,493.0,493.0,493.0,504.0,504.0
0,506.9555555555556,489.06666666666666,499.02222222222224,517.0,549.0,504.0,503.0,475.0,489.0,19.0,94.0,29.0,517.0,549.0,504.0,503.0,503.0,503.0,506.0,506.0,506.0,512.0,512.0,512.0,512.0,512.0,512.0,512.0,516.0,516.0,516.0,517.0,517.0,517.0,517.0,475.0,475.0,475.0,498.0,498.0,498.0,509.0,509.0,509.0,509.0,530.0,530.0,530.0,529.0,529.0,529.0,549.0,549.0,549.0,549.0,496.0,496.0,496.0,489.0,489.0,489.0,489.0,489.0,489.0,489.0,490.0,490.0,490.0,493.0,493.0,493.0,504.0,504.0,504.0,504.0
0,507.4888888888889,495.77777777777777,499.15555555555557,509.0,570.0,526.0,506.0,498.0,489.0,19.0,115.0,37.0,517.0,570.0,526.0,506.0,506.0,512.0,512.0,512.0,512.0,512.0,512.0,516.0,516.0,516.0,517.0,517.0,517.0,517.0,511.0,511.0,511.0,509.0,509.0,498.0,509.0,509.0,509.0,509.0,530.0,530.0,530.0,529.0,529.0,529.0,549.0,549.0,549.0,549.0,567.0,567.0,567.0,570.0,570.0,489.0,489.0,489.0,489.0,489.0,490.0,490.0,490.0,493.0,493.0,493.0,504.0,504.0,504.0,504.0,515.0,515.0,515.0,526.0,526.0
0,508.3777777777778,504.75555555555553,501.24444444444447,516.0,567.0,529.0,509.0,509.0,489.0,19.0,115.0,40.0,517.0,570.0,529.0,512.0,512.0,512.0,512.0,512.0,516.0,516.0,516.0,517.0,517.0,517.0,517.0,511.0,511.0,511.0,509.0,509.0,509.0,516.0,516.0,509.0,509.0,530.0,530.0,530.0,529.0,529.0,529.0,549.0,549.0,549.0,549.0,567.0,567.0,567.0,570.0,570.0,570.0,567.0,567.0,489.0,489.0,490.0,490.0,490.0,493.0,493.0,493.0,504.0,504.0,504.0,504.0,515.0,515.0,515.0,526.0,526.0,526.0,529.0,529.0
0,508.77777777777777,509.55555555555554,502.6666666666667,512.0,559.0,527.0,509.0,529.0,490.0,19.0,115.0,40.0,517.0,570.0,529.0,512.0,512.0,512.0,516.0,516.0,516.0,517.0,517.0,517.0,517.0,511.0,511.0,511.0,509.0,509.0,509.0,516.0,516.0,516.0,512.0,530.0,530.0,530.0,529.0,529.0,529.0,549.0,549.0,549.0,549.0,567.0,567.0,567.0,570.0,570.0,570.0,567.0,567.0,567.0,559.0,490.0,490.0,490.0,493.0,493.0,493.0,504.0,504.0,504.0,504.0,515.0,515.0,515.0,526.0,526.0,526.0,529.0,529.0,529.0,527.0
0,509.31111111111113,518.0,504.8,504.0,543.0,521.0,504.0,529.0,493.0,19.0,112.0,40.0,517.0,570.0,529.0,516.0,516.0,517.0,517.0,517.0,517.0,511.0,511.0,511.0,509.0,509.0,509.0,516.0,516.0,516.0,512.0,512.0,512.0,512.0,504.0,529.0,529.0,549.0,549.0,549.0,549.0,567.0,567.0,567.0,570.0,570.0,570.0,567.0,567.0,567.0,559.0,559.0,559.0,559.0,543.0,493.0,493.0,504.0,504.0,504.0,504.0,515.0,515.0,515.0,526.0,526.0,526.0,529.0,529.0,529.0,527.0,527.0,527.0,527.0,521.0
0,509.8,523.1555555555556,505.64444444444445,511.0,539.0,517.0,504.0,539.0,504.0,19.0,112.0,40.0,517.0,570.0,529.0,517.0,517.0,517.0,511.0,511.0,511.0,509.0,509.0,509.0,516.0,516.0,516.0,512.0,512.0,512.0,512.0,504.0,504.0,511.0,511.0,549.0,549.0,549.0,567.0,567.0,567.0,570.0,570.0,570.0,567.0,567.0,567.0,559.0,559.0,559.0,559.0,543.0,543.0,539.0,539.0,504.0,504.0,504.0,515.0,515.0,515.0,526.0,526.0,526.0,529.0,529.0,529.0,527.0,527.0,527.0,527.0,521.0,521.0,517.0,517.0
0,510.44444444444446,527.6222222222223,506.35555555555555,509.0,519.0,510.0,504.0,519.0,510.0,14.0,112.0,40.0,516.0,570.0,529.0,511.0,511.0,511.0,509.0,509.0,509.0,516.0,516.0,516.0,512.0,512.0,512.0,512.0,504.0,504.0,511.0,511.0,511.0,509.0,509.0,567.0,567.0,567.0,570.0,570.0,570.0,567.0,567.0,567.0,559.0,559.0,559.0,559.0,543.0,543.0,539.0,539.0,539.0,519.0,519.0,515.0,515.0,515.0,526.0,526.0,526.0,529.0,529.0,529.0,527.0,527.0,527.0,527.0,521.0,521.0,517.0,517.0,517.0,510.0,510.0
0,510.6,529.8666666666667,506.9111111111111,508.0,507.0,509.0,504.0,507.0,509.0,14.0,103.0,40.0,516.0,570.0,529.0,511.0,509.0,509.0,509.0,516.0,516.0,516.0,512.0,512.0,512.0,512.0,504.0,504.0,511.0,511.0,511.0,509.0,509.0,509.0,508.0,567.0,570.0,570.0,570.0,567.0,567.0,567.0,559.0,559.0,559.0,559.0,543.0,543.0,539.0,539.0,539.0,519.0,519.0,519.0,507.0,515.0,526.0,526.0,526.0,529.0,529.0,529.0,527.0,527.0,527.0,527.0,521.0,521.0,517.0,517.0,517.0,510.0,510.0,510.0,509.0
0,510.9555555555556,533.0666666666667,508.6,508.0,487.0,513.0,504.0,487.0,509.0,14.0,95.0,40.0,516.0,567.0,529.0,516.0,516.0,512.0,512.0,512.0,512.0,504.0,504.0,511.0,511.0,511.0,509.0,509.0,509.0,508.0,508.0,508.0,508.0,508.0,508.0,567.0,567.0,559.0,559.0,559.0,559.0,543.0,543.0,539.0,539.0,539.0,519.0,519.0,519.0,507.0,507.0,507.0,507.0,487.0,487.0,529.0,529.0,527.0,527.0,527.0,527.0,521.0,521.0,517.0,517.0,517.0,510.0,510.0,510.0,509.0,509.0,509.0,509.0,513.0,513.0
0,511.0888888888889,532.8444444444444,510.1777777777778,505.0,487.0,519.0,504.0,487.0,509.0,13.0,83.0,40.0,512.0,559.0,527.0,512.0,512.0,512.0,504.0,504.0,511.0,511.0,511.0,509.0,509.0,509.0,508.0,508.0,508.0,508.0,508.0,508.0,508.0,508.0,505.0,559.0,559.0,559.0,543.0,543.0,539.0,539.0,539.0,519.0,519.0,519.0,507.0,507.0,507.0,507.0,487.0,487.0,487.0,487.0,487.0,527.0,527.0,527.0,521.0,521.0,517.0,517.0,517.0,510.0,510.0,510.0,509.0,509.0,509.0,509.0,513.0,513.0,513.0,513.0,519.0
0,510.68888888888887,530.8,512.8222222222222,509.0,472.0,518.0,504.0,472.0,509.0,13.0,98.0,40.0,511.0,543.0,521.0,504.0,511.0,511.0,511.0,509.0,509.0,509.0,508.0,508.0,508.0,508.0,508.0,508.0,508.0,508.0,505.0,505.0,505.0,509.0,509.0,543.0,539.0,539.0,539.0,519.0,519.0,519.0,507.0,507.0,507.0,507.0,487.0,487.0,487.0,487.0,487.0,487.0,487.0,472.0,472.0,521.0,517.0,517.0,517.0,510.0,510.0,510.0,509.0,509.0,509.0,509.0,513.0,513.0,513.0,513.0,519.0,519.0,519.0,518.0,518.0
0,510.3777777777778,527.1333333333333,514.7333333333333,504.0,460.0,519.0,504.0,460.0,509.0,13.0,110.0,39.0,511.0,539.0,519.0,511.0,509.0,509.0,509.0,508.0,508.0,508.0,508.0,508.0,508.0,508.0,508.0,505.0,505.0,505.0,505.0,509.0,509.0,509.0,504.0,539.0,519.0,519.0,519.0,507.0,507.0,507.0,507.0,487.0,487.0,487.0,487.0,487.0,487.0,487.0,487.0,472.0,472.0,472.0,460.0,517.0,510.0,510.0,510.0,509.0,509.0,509.0,509.0,513.0,513.0,513.0,513.0,519.0,519.0,519.0,519.0,518.0,518.0,518.0,519.0
0,509.35555555555555,520.9777777777778,517.1111111111111,503.0,460.0,519.0,503.0,460.0,509.0,14.0,110.0,25.0,509.0,507.0,519.0,508.0,508.0,508.0,508.0,508.0,508.0,508.0,508.0,505.0,505.0,505.0,505.0,509.0,509.0,509.0,504.0,504.0,504.0,503.0,503.0,507.0,507.0,507.0,507.0,487.0,487.0,487.0,487.0,487.0,487.0,487.0,487.0,472.0,472.0,472.0,460.0,460.0,460.0,460.0,460.0,509.0,509.0,509.0,509.0,513.0,513.0,513.0,513.0,519.0,519.0,519.0,519.0,518.0,518.0,518.0,519.0,519.0,519.0,519.0,519.0
0,508.3777777777778,515.0,517.6666666666666,501.0,458.0,499.0,501.0,458.0,499.0,16.0,112.0,30.0,509.0,507.0,519.0,508.0,508.0,508.0,508.0,508.0,505.0,505.0,505.0,505.0,509.0,509.0,509.0,504.0,504.0,504.0,503.0,503.0,503.0,503.0,501.0,507.0,487.0,487.0,487.0,487.0,487.0,487.0,487.0,487.0,472.0,472.0,472.0,460.0,460.0,460.0,460.0,460.0,460.0,460.0,458.0,509.0,513.0,513.0,513.0,513.0,519.0,519.0,519.0,519.0,518.0,518.0,518.0,519.0,519.0,519.0,519.0,519.0,519.0,519.0,499.0
0,508.1111111111111,508.22222222222223,517.1111111111111,513.0,460.0,505.0,501.0,458.0,499.0,15.0,112.0,30.0,513.0,487.0,519.0,508.0,508.0,505.0,505.0,505.0,505.0,509.0,509.0,509.0,504.0,504.0,504.0,503.0,503.0,503.0,503.0,501.0,501.0,513.0,513.0,487.0,487.0,487.0,487.0,487.0,487.0,472.0,472.0,472.0,460.0,460.0,460.0,460.0,460.0,460.0,460.0,458.0,458.0,460.0,460.0,513.0,513.0,519.0,519.0,519.0,519.0,518.0,518.0,518.0,519.0,519.0,519.0,519.0,519.0,519.0,519.0,499.0,499.0,505.0,505.0
0,507.8888888888889,499.22222222222223,515.5777777777778,501.0,476.0,507.0,501.0,458.0,499.0,15.0,109.0,30.0,513.0,487.0,519.0,505.0,505.0,509.0,509.0,509.0,504.0,504.0,504.0,503.0,503.0,503.0,503.0,501.0,501.0,513.0,513.0,513.0,513.0,501.0,501.0,487.0,487.0,472.0,472.0,472.0,460.0,460.0,460.0,460.0,460.0,460.0,460.0,458.0,458.0,460.0,460.0,460.0,460.0,476.0,476.0,519.0,519.0,518.0,518.0,518.0,519.0,519.0,519.0,519.0,519.0,519.0,519.0,499.0,499.0,505.0,505.0,505.0,505.0,507.0,507.0
0,507.15555555555557,493.15555555555557,513.6666666666666,507.0,476.0,497.0,501.0,458.0,497.0,12.0,101.0,30.0,513.0,476.0,519.0,509.0,509.0,504.0,504.0,504.0,503.0,503.0,503.0,503.0,501.0,501.0,513.0,513.0,513.0,513.0,501.0,501.0,501.0,507.0,507.0,472.0,472.0,460.0,460.0,460.0,460.0,460.0,460.0,460.0,458.0,458.0,460.0,460.0,460.0,460.0,476.0,476.0,476.0,476.0,476.0,518.0,518.0,519.0,519.0,519.0,519.0,519.0,519.0,519.0,499.0,499.0,505.0,505.0,505.0,505.0,507.0,507.0,507.0,497.0,497.0
0,506.77777777777777,488.55555555555554,511.4888888888889,506.0,497.0,493.0,501.0,458.0,493.0,12.0,101.0,34.0,513.0,497.0,519.0,504.0,504.0,503.0,503.0,503.0,503.0,501.0,501.0,513.0,513.0,513.0,513.0,501.0,501.0,501.0,507.0,507.0,507.0,506.0,506.0,460.0,460.0,460.0,460.0,460.0,460.0,458.0,458.0,460.0,460.0,460.0,460.0,476.0,476.0,476.0,476.0,476.0,476.0,497.0,497.0,519.0,519.0,519.0,519.0,519.0,519.0,499.0,499.0,505.0,505.0,505.0,505.0,507.0,507.0,507.0,497.0,497.0,497.0,493.0,493.0
0,506.68888888888887,486.15555555555557,510.1111111111111,506.0,497.0,493.0,501.0,458.0,493.0,12.0,85.0,28.0,513.0,497.0,519.0,503.0,503.0,503.0,503.0,501.0,501.0,513.0,513.0,513.0,513.0,501.0,501.0,501.0,507.0,507.0,507.0,506.0,506.0,506.0,506.0,460.0,460.0,460.0,460.0,458.0,458.0,460.0,460.0,460.0,460.0,476.0,476.0,476.0,476.0,476.0,476.0,497.0,497.0,497.0,497.0,519.0,519.0,519.0,519.0,499.0,499.0,505.0,505.0,505.0,505.0,507.0,507.0,507.0,497.0,497.0,497.0,493.0,493.0,493.0,493.0
0,506.4888888888889,483.8888888888889,507.84444444444443,510.0,518.0,488.0,501.0,458.0,488.0,12.0,61.0,31.0,513.0,518.0,507.0,501.0,501.0,513.0,513.0,513.0,513.0,501.0,501.0,501.0,507.0,507.0,507.0,506.0,506.0,506.0,506.0,504.0,504.0,510.0,510.0,458.0,458.0,460.0,460.0,460.0,460.0,476.0,476.0,476.0,476.0,476.0,476.0,497.0,497.0,497.0,497.0,511.0,511.0,518.0,518.0,499.0,499.0,505.0,505.0,505.0,505.0,507.0,507.0,507.0,497.0,497.0,497.0,493.0,493.0,493.0,493.0,497.0,497.0,488.0,488.0
0,506.73333333333335,484.4,506.55555555555554,514.0,531.0,492.0,501.0,460.0,488.0,13.0,73.0,31.0,514.0,531.0,507.0,513.0,513.0,513.0,501.0,501.0,501.0,507.0,507.0,507.0,506.0,506.0,506.0,506.0,504.0,504.0,510.0,510.0,510.0,514.0,514.0,460.0,460.0,460.0,476.0,476.0,476.0,476.0,476.0,476.0,497.0,497.0,497.0,497.0,511.0,511.0,518.0,518.0,518.0,531.0,531.0,505.0,505.0,505.0,507.0,507.0,507.0,497.0,497.0,497.0,493.0,493.0,493.0,493.0,497.0,497.0,488.0,488.0,488.0,492.0,492.0
0,507.1333333333333,486.3333333333333,505.5111111111111,514.0,546.0,496.0,501.0,476.0,488.0,13.0,88.0,31.0,514.0,546.0,507.0,501.0,501.0,501.0,507.0,507.0,507.0,506.0,506.0,506.0,506.0,504.0,504.0,510.0,510.0,510.0,514.0,514.0,514.0,514.0,514.0,476.0,476.0,476.0,476.0,476.0,476.0,497.0,497.0,497.0,497.0,511.0,511.0,518.0,518.0,518.0,531.0,531.0,531.0,531.0,546.0,507.0,507.0,507.0,497.0,497.0,497.0,493.0,493.0,493.0,493.0,497.0,497.0,488.0,488.0,488.0,492.0,492.0,492.0,492.0,496.0
0,507.46666666666664,488.73333333333335,505.0,517.0,556.0,503.0,501.0,476.0,488.0,16.0,98.0,31.0,517.0,556.0,507.0,501.0,507.0,507.0,507.0,506.0,506.0,506.0,506.0,504.0,504.0,510.0,510.0,510.0,514.0,514.0,514.0,514.0,514.0,517.0,517.0,476.0,476.0,476.0,476.0,497.0,497.0,497.0,497.0,511.0,511.0,518.0,518.0,518.0,531.0,531.0,531.0,531.0,546.0,556.0,556.0,507.0,497.0,497.0,497.0,493.0,493.0,493.0,493.0,497.0,497.0,488.0,488.0,488.0,492.0,492.0,492.0,492.0,496.0,503.0,503.0
0,508.55555555555554,496.7111111111111,503.75555555555553,516.0,563.0,506.0,504.0,497.0,488.0,16.0,105.0,31.0,517.0,563.0,506.0,506.0,506.0,506.0,504.0,504.0,510.0,510.0,510.0,514.0,514.0,514.0,514.0,514.0,514.0,517.0,517.0,517.0,517.0,516.0,516.0,497.0,497.0,497.0,511.0,511.0,518.0,518.0,518.0,531.0,531.0,531.0,531.0,546.0,546.0,556.0,556.0,556.0,556.0,563.0,563.0,493.0,493.0,493.0,497.0,497.0,488.0,488.0,488.0,492.0,492.0,492.0,492.0,496.0,496.0,503.0,503.0,503.0,503.0,506.0,506.0
0,509.3777777777778,502.3777777777778,503.1777777777778,520.0,569.0,512.0,504.0,511.0,488.0,19.0,111.0,31.0,520.0,569.0,512.0,504.0,504.0,510.0,510.0,510.0,514.0,514.0,514.0,514.0,514.0,514.0,517.0,517.0,517.0,517.0,516.0,516.0,516.0,520.0,520.0,511.0,511.0,518.0,518.0,518.0,531.0,531.0,531.0,531.0,546.0,546.0,556.0,556.0,556.0,556.0,563.0,563.0,563.0,569.0,569.0,497.0,497.0,488.0,488.0,488.0,492.0,492.0,492.0,492.0,496.0,496.0,503.0,503.0,503.0,503.0,506.0,506.0,506.0,512.0,512.0
0,510.1777777777778,511.1777777777778,503.31111111111113,511.0,561.0,528.0,510.0,518.0,488.0,19.0,111.0,40.0,520.0,569.0,528.0,510.0,514.0,514.0,514.0,514.0,514.0,514.0,517.0,517.0,517.0,517.0,516.0,516.0,516.0,520.0,520.0,520.0,520.0,511.0,511.0,518.0,531.0,531.0,531.0,531.0,546.0,546.0,556.0,556.0,556.0,556.0,563.0,563.0,563.0,569.0,569.0,569.0,569.0,561.0,561.0,488.0,492.0,492.0,492.0,492.0,496.0,496.0,503.0,503.0,503.0,503.0,506.0,506.0,506.0,512.0,512.0,512.0,512.0,528.0,528.0
0,510.8222222222222,519.9333333333333,503.93333333333334,510.0,556.0,524.0,510.0,531.0,492.0,19.0,111.0,40.0,520.0,569.0,528.0,514.0,514.0,514.0,517.0,517.0,517.0,517.0,516.0,516.0,516.0,520.0,520.0,520.0,520.0,511.0,511.0,511.0,511.0,510.0,510.0,531.0,546.0,546.0,556.0,556.0,556.0,556.0,563.0,563.0,563.0,569.0,569.0,569.0,569.0,561.0,561.0,561.0,561.0,556.0,556.0,492.0,496.0,496.0,503.0,503.0,503.0,503.0,506.0,506.0,506.0,512.0,512.0,512.0,512.0,528.0,528.0,528.0,528.0,524.0,524.0
0,511.44444444444446,527.7111111111111,505.75555555555553,513.0,537.0,528.0,510.0,537.0,503.0,19.0,109.0,40.0,520.0,569.0,528.0,517.0,517.0,517.0,516.0,516.0,516.0,520.0,520.0,520.0,520.0,511.0,511.0,511.0,511.0,510.0,510.0,510.0,510.0,513.0,513.0,556.0,556.0,556.0,563.0,563.0,563.0,569.0,569.0,569.0,569.0,561.0,561.0,561.0,561.0,556.0,556.0,556.0,556.0,537.0,537.0,503.0,503.0,503.0,506.0,506.0,506.0,512.0,512.0,512.0,512.0,528.0,528.0,528.0,528.0,524.0,524.0,524.0,524.0,528.0,528.0
0,511.53333333333336,530.8888888888889,506.6666666666667,517.0,526.0,523.0,510.0,526.0,503.0,19.0,109.0,40.0,520.0,569.0,528.0,517.0,516.0,516.0,516.0,520.0,520.0,520.0,520.0,511.0,511.0,511.0,510.0,510.0,510.0,510.0,513.0,513.0,513.0,517.0,517.0,556.0,563.0,563.0,563.0,569.0,569.0,569.0,569.0,561.0,561.0,561.0,556.0,556.0,556.0,556.0,537.0,537.0,537.0,526.0,526.0,503.0,506.0,506.0,506.0,512.0,512.0,512.0,512.0,528.0,528.0,528.0,524.0,524.0,524.0,524.0,528.0,528.0,528.0,523.0,523.0
0,512.6222222222223,535.4,507.84444444444443,514.0,513.0,510.0,510.0,513.0,510.0,16.0,93.0,40.0,520.0,569.0,528.0,520.0,520.0,520.0,520.0,511.0,511.0,511.0,511.0,510.0,510.0,510.0,510.0,513.0,513.0,513.0,517.0,517.0,517.0,517.0,514.0,569.0,569.0,569.0,569.0,561.0,561.0,561.0,561.0,556.0,556.0,556.0,556.0,537.0,537.0,537.0,526.0,526.0,526.0,526.0,513.0,512.0,512.0,512.0,512.0,528.0,528.0,528.0,528.0,524.0,524.0,524.0,524.0,528.0,528.0,528.0,523.0,523.0,523.0,523.0,510.0
0,512.7777777777778,536.8,508.84444444444443,507.0,489.0,513.0,507.0,489.0,510.0,16.0,80.0,40.0,520.0,569.0,528.0,520.0,511.0,511.0,511.0,511.0,510.0,510.0,510.0,510.0,513.0,513.0,513.0,517.0,517.0,517.0,517.0,514.0,514.0,507.0,507.0,569.0,561.0,561.0,561.0,561.0,556.0,556.0,556.0,556.0,537.0,537.0,537.0,526.0,526.0,526.0,526.0,513.0,513.0,489.0,489.0,512.0,528.0,528.0,528.0,528.0,524.0,524.0,524.0,524.0,528.0,528.0,528.0,523.0,523.0,523.0,523.0,510.0,510.0,513.0,513.0
0,512.8222222222222,536.4444444444445,509.73333333333335,507.0,489.0,513.0,507.0,489.0,510.0,16.0,80.0,40.0,517.0,561.0,528.0,511.0,511.0,510.0,510.0,510.0,510.0,513.0,513.0,513.0,517.0,517.0,517.0,517.0,514.0,514.0,507.0,507.0,507.0,507.0,510.0,561.0,561.0,556.0,556.0,556.0,556.0,537.0,537.0,537.0,526.0,526.0,526.0,526.0,513.0,513.0,489.0,489.0,489.0,489.0,486.0,528.0,528.0,524.0,524.0,524.0,524.0,528.0,528.0,528.0,523.0,523.0,523.0,523.0,510.0,510.0,513.0,513.0,513.0,513.0,512.0
0,513.1333333333333,535.4,510.9111111111111,510.0,486.0,512.0,507.0,486.0,510.0,16.0,83.0,40.0,517.0,556.0,528.0,510.0,510.0,510.0,510.0,513.0,513.0,513.0,517.0,517.0,517.0,517.0,514.0,514.0,507.0,507.0,507.0,507.0,510.0,510.0,510.0,556.0,556.0,556.0,556.0,537.0,537.0,537.0,526.0,526.0,526.0,526.0,513.0,513.0,489.0,489.0,489.0,489.0,486.0,486.0,486.0,524.0,524.0,524.0,524.0,528.0,528.0,528.0,523.0,523.0,523.0,523.0,510.0,510.0,513.0,513.0,513.0,513.0,512.0,512.0,512.0
0,512.5333333333333,531.9333333333333,512.0222222222222,497.0,459.0,509.0,497.0,459.0,507.0,23.0,110.0,40.0,517.0,556.0,528.0,510.0,513.0,513.0,513.0,517.0,517.0,517.0,517.0,514.0,514.0,507.0,507.0,507.0,507.0,510.0,510.0,510.0,500.0,500.0,497.0,556.0,537.0,537.0,537.0,526.0,526.0,526.0,526.0,513.0,513.0,489.0,489.0,489.0,489.0,486.0,486.0,486.0,466.0,466.0,459.0,524.0,528.0,528.0,528.0,523.0,523.0,523.0,523.0,510.0,510.0,513.0,513.0,513.0,513.0,512.0,512.0,512.0,507.0,507.0,509.0
0,511.75555555555553,527.2444444444444,513.2888888888889,509.0,451.0,511.0,497.0,451.0,507.0,23.0,118.0,36.0,517.0,537.0,528.0,513.0,517.0,517.0,517.0,517.0,514.0,514.0,507.0,507.0,507.0,507.0,510.0,510.0,510.0,500.0,500.0,497.0,497.0,497.0,509.0,537.0,526.0,526.0,526.0,526.0,513.0,513.0,489.0,489.0,489.0,489.0,486.0,486.0,486.0,466.0,466.0,459.0,459.0,459.0,451.0,528.0,523.0,523.0,523.0,523.0,510.0,510.0,513.0,513.0,513.0,513.0,512.0,512.0,512.0,507.0,507.0,509.0,509.0,509.0,511.0
0,511.1111111111111,521.8,514.4222222222222,502.0,456.0,510.0,497.0,451.0,507.0,23.0,118.0,32.0,517.0,526.0,523.0,517.0,517.0,514.0,514.0,507.0,507.0,507.0,507.0,510.0,510.0,510.0,500.0,500.0,497.0,497.0,497.0,509.0,509.0,502.0,502.0,526.0,526.0,513.0,513.0,489.0,489.0,489.0,489.0,486.0,486.0,486.0,466.0,466.0,459.0,459.0,459.0,451.0,451.0,456.0,456.0,523.0,523.0,510.0,510.0,513.0,513.0,513.0,513.0,512.0,512.0,512.0,507.0,507.0,509.0,509.0,509.0,511.0,511.0,510.0,510.0
0,510.1777777777778,515.0888888888888,514.5111111111111,502.0,450.0,498.0,497.0,450.0,498.0,23.0,119.0,30.0,514.0,513.0,513.0,514.0,507.0,507.0,507.0,507.0,510.0,510.0,510.0,500.0,500.0,497.0,497.0,497.0,509.0,509.0,502.0,502.0,502.0,502.0,502.0,513.0,489.0,489.0,489.0,489.0,486.0,486.0,486.0,466.0,466.0,459.0,459.0,459.0,451.0,451.0,456.0,456.0,456.0,450.0,450.0,510.0,513.0,513.0,513.0,513.0,512.0,512.0,512.0,507.0,507.0,509.0,509.0,509.0,511.0,511.0,510.0,510.0,510.0,498.0,498.0
0,509.2888888888889,508.53333333333336,514.1111111111111,504.0,465.0,498.0,497.0,450.0,498.0,23.0,119.0,30.0,510.0,489.0,513.0,507.0,507.0,510.0,510.0,510.0,500.0,500.0,497.0,497.0,497.0,509.0,509.0,502.0,502.0,502.0,502.0,502.0,502.0,504.0,504.0,489.0,489.0,486.0,486.0,486.0,466.0,466.0,459.0,459.0,459.0,451.0,451.0,456.0,456.0,456.0,450.0,450.0,450.0,465.0,465.0,513.0,513.0,512.0,512.0,512.0,507.0,507.0,509.0,509.0,509.0,511.0,511.0,510.0,510.0,510.0,498.0,498.0,498.0,498.0,498.0
0,508.75555555555553,502.4,513.4,512.0,477.0,497.0,497.0,450.0,497.0,23.0,119.0,31.0,512.0,486.0,512.0,510.0,510.0,500.0,500.0,497.0,497.0,497.0,509.0,509.0,502.0,502.0,502.0,502.0,502.0,502.0,504.0,504.0,504.0,512.0,512.0,486.0,486.0,466.0,466.0,459.0,459.0,459.0,451.0,451.0,456.0,456.0,456.0,450.0,450.0,450.0,465.0,465.0,465.0,477.0,477.0,512.0,512.0,507.0,507.0,509.0,509.0,509.0,511.0,511.0,510.0,510.0,510.0,498.0,498.0,498.0,498.0,498.0,498.0,497.0,497.0
0,508.2,496.3333333333333,512.5555555555555,511.0,480.0,504.0,497.0,450.0,497.0,20.0,111.0,31.0,512.0,480.0,511.0,500.0,497.0,497.0,497.0,509.0,509.0,502.0,502.0,502.0,502.0,502.0,502.0,504.0,504.0,504.0,512.0,512.0,512.0,512.0,511.0,466.0,459.0,459.0,459.0,451.0,451.0,456.0,456.0,456.0,450.0,450.0,450.0,465.0,465.0,465.0,477.0,477.0,477.0,477.0,480.0,507.0,509.0,509.0,509.0,511.0,511.0,510.0,510.0,510.0,498.0,498.0,498.0,498.0,498.0,498.0,497.0,497.0,497.0,497.0,504.0
0,508.1333333333333,488.64444444444445,509.8888888888889,509.0,507.0,502.0,502.0,450.0,497.0,20.0,106.0,31.0,512.0,507.0,511.0,509.0,502.0,502.0,502.0,502.0,502.0,502.0,504.0,504.0,504.0,512.0,512.0,512.0,512.0,511.0,511.0,511.0,511.0,509.0,509.0,451.0,456.0,456.0,456.0,450.0,450.0,450.0,465.0,465.0,465.0,477.0,477.0,477.0,477.0,480.0,480.0,480.0,480.0,507.0,507.0,511.0,510.0,510.0,510.0,498.0,498.0,498.0,498.0,498.0,498.0,497.0,497.0,497.0,497.0,504.0,504.0,504.0,504.0,502.0,502.0
0,508.02222222222224,485.3777777777778,508.3777777777778,508.0,507.0,501.0,502.0,450.0,497.0,20.0,87.0,31.0,512.0,507.0,510.0,502.0,502.0,502.0,502.0,504.0,504.0,504.0,512.0,512.0,512.0,512.0,511.0,511.0,511.0,511.0,509.0,509.0,509.0,508.0,508.0,456.0,450.0,450.0,450.0,465.0,465.0,465.0,477.0,477.0,477.0,477.0,480.0,480.0,480.0,480.0,507.0,507.0,507.0,507.0,507.0,510.0,498.0,498.0,498.0,498.0,498.0,498.0,497.0,497.0,497.0,497.0,504.0,504.0,504.0,504.0,502.0,502.0,502.0,501.0,501.0
0,507.8222222222222,484.35555555555555,507.1333333333333,509.0,521.0,499.0,502.0,450.0,497.0,20.0,87.0,31.0,512.0,521.0,504.0,502.0,502.0,504.0,504.0,504.0,512.0,512.0,512.0,512.0,511.0,511.0,511.0,511.0,509.0,509.0,509.0,508.0,508.0,508.0,509.0,450.0,450.0,465.0,465.0,465.0,477.0,477.0,477.0,477.0,480.0,480.0,480.0,480.0,507.0,507.0,507.0,507.0,507.0,507.0,521.0,498.0,498.0,498.0,498.0,498.0,497.0,497.0,497.0,497.0,504.0,504.0,504.0,504.0,502.0,502.0,502.0,501.0,501.0,501.0,499.0
0,507.02222222222224,484.4888888888889,504.6222222222222,509.0,542.0,505.0,508.0,477.0,497.0,17.0,92.0,16.0,512.0,542.0,505.0,512.0,512.0,512.0,512.0,511.0,511.0,511.0,511.0,509.0,509.0,509.0,508.0,508.0,508.0,509.0,509.0,509.0,509.0,509.0,509.0,477.0,477.0,477.0,477.0,480.0,480.0,480.0,480.0,507.0,507.0,507.0,507.0,507.0,507.0,521.0,521.0,521.0,521.0,542.0,542.0,497.0,497.0,497.0,497.0,504.0,504.0,504.0,504.0,502.0,502.0,502.0,501.0,501.0,501.0,499.0,499.0,499.0,499.0,505.0,505.0
0,507.24444444444447,487.6222222222222,503.9555555555556,518.0,557.0,499.0,508.0,477.0,497.0,21.0,107.0,16.0,518.0,557.0,505.0,512.0,511.0,511.0,511.0,511.0,509.0,509.0,509.0,508.0,508.0,508.0,509.0,509.0,509.0,509.0,509.0,509.0,509.0,518.0,518.0,477.0,480.0,480.0,480.0,480.0,507.0,507.0,507.0,507.0,507.0,507.0,521.0,521.0,521.0,521.0,542.0,542.0,542.0,557.0,557.0,497.0,504.0,504.0,504.0,504.0,502.0,502.0,502.0,501.0,501.0,501.0,499.0,499.0,499.0,499.0,505.0,505.0,505.0,499.0,499.0
0,507.6666666666667,490.6666666666667,503.22222222222223,515.0,558.0,494.0,508.0,480.0,494.0,21.0,108.0,19.0,518.0,558.0,505.0,511.0,511.0,511.0,509.0,509.0,509.0,508.0,508.0,508.0,509.0,509.0,509.0,509.0,509.0,509.0,509.0,518.0,518.0,518.0,515.0,480.0,480.0,480.0,507.0,507.0,507.0,507.0,507.0,507.0,521.0,521.0,521.0,521.0,542.0,542.0,542.0,557.0,557.0,557.0,558.0,504.0,504.0,504.0,502.0,502.0,502.0,501.0,501.0,501.0,499.0,499.0,499.0,499.0,505.0,505.0,505.0,499.0,499.0,499.0,494.0
0,508.5777777777778,499.2,501.75555555555553,518.0,565.0,514.0,508.0,507.0,494.0,21.0,115.0,20.0,518.0,565.0,514.0,509.0,508.0,508.0,508.0,509.0,509.0,509.0,509.0,509.0,509.0,509.0,518.0,518.0,518.0,515.0,515.0,515.0,515.0,515.0,518.0,507.0,507.0,507.0,507.0,521.0,521.0,521.0,521.0,542.0,542.0,542.0,557.0,557.0,557.0,558.0,558.0,558.0,558.0,558.0,565.0,502.0,501.0,501.0,501.0,499.0,499.0,499.0,499.0,505.0,505.0,505.0,499.0,499.0,499.0,494.0,494.0,494.0,494.0,494.0,514.0
0,509.73333333333335,506.22222222222223,502.31111111111113,510.0,570.0,522.0,508.0,507.0,494.0,21.0,120.0,28.0,518.0,570.0,522.0,508.0,509.0,509.0,509.0,509.0,509.0,509.0,509.0,518.0,518.0,518.0,515.0,515.0,515.0,515.0,515.0,518.0,518.0,518.0,510.0,507.0,521.0,521.0,521.0,521.0,542.0,542.0,542.0,557.0,557.0,557.0,558.0,558.0,558.0,558.0,558.0,565.0,565.0,565.0,570.0,501.0,499.0,499.0,499.0,499.0,505.0,505.0,505.0,499.0,499.0,499.0,494.0,494.0,494.0,494.0,494.0,514.0,514.0,514.0,522.0
0,510.06666666666666,513.7111111111111,503.0888888888889,510.0,558.0,522.0,509.0,521.0,494.0,16.0,120.0,28.0,518.0,570.0,522.0,509.0,509.0,509.0,509.0,509.0,518.0,518.0,518.0,515.0,515.0,515.0,515.0,515.0,518.0,518.0,518.0,510.0,510.0,510.0,510.0,521.0,521.0,542.0,542.0,542.0,557.0,557.0,557.0,558.0,558.0,558.0,558.0,558.0,565.0,565.0,565.0,570.0,570.0,570.0,558.0,499.0,499.0,505.0,505.0,505.0,499.0,499.0,499.0,494.0,494.0,494.0,494.0,494.0,514.0,514.0,514.0,522.0,522.0,522.0,522.0
0,510.68888888888887,524.8666666666667,505.1333333333333,504.0,548.0,526.0,504.0,548.0,494.0,16.0,120.0,32.0,518.0,570.0,526.0,518.0,518.0,518.0,515.0,515.0,515.0,515.0,515.0,518.0,518.0,518.0,510.0,510.0,510.0,510.0,510.0,510.0,510.0,504.0,504.0,557.0,557.0,557.0,558.0,558.0,558.0,558.0,558.0,565.0,565.0,565.0,570.0,570.0,570.0,558.0,558.0,558.0,558.0,548.0,548.0,499.0,499.0,499.0,494.0,494.0,494.0,494.0,494.0,514.0,514.0,514.0,522.0,522.0,522.0,522.0,522.0,522.0,522.0,526.0,526.0
0,510.8666666666667,530.5111111111111,506.77777777777777,507.0,543.0,521.0,504.0,543.0,494.0,14.0,105.0,32.0,518.0,570.0,526.0,515.0,515.0,515.0,515.0,515.0,518.0,518.0,518.0,510.0,510.0,510.0,510.0,510.0,510.0,510.0,504.0,504.0,504.0,507.0,507.0,558.0,558.0,558.0,558.0,558.0,565.0,565.0,565.0,570.0,570.0,570.0,558.0,558.0,558.0,558.0,548.0,548.0,548.0,543.0,543.0,494.0,494.0,494.0,494.0,494.0,514.0,514.0,514.0,522.0,522.0,522.0,522.0,522.0,522.0,522.0,526.0,526.0,526.0,521.0,521.0
0,510.84444444444443,533.9333333333333,508.35555555555555,510.0,515.0,521.0,504.0,515.0,494.0,14.0,93.0,32.0,518.0,570.0,526.0,515.0,515.0,518.0,518.0,518.0,510.0,510.0,510.0,510.0,510.0,510.0,510.0,504.0,504.0,504.0,507.0,507.0,507.0,510.0,510.0,558.0,558.0,565.0,565.0,565.0,570.0,570.0,570.0,558.0,558.0,558.0,558.0,548.0,548.0,548.0,543.0,543.0,543.0,515.0,515.0,494.0,494.0,514.0,514.0,514.0,522.0,522.0,522.0,522.0,522.0,522.0,522.0,526.0,526.0,526.0,521.0,521.0,521.0,521.0,521.0
0,510.55555555555554,536.1777777777778,509.84444444444443,506.0,510.0,522.0,504.0,510.0,514.0,14.0,90.0,32.0,518.0,570.0,526.0,518.0,518.0,510.0,510.0,510.0,510.0,510.0,510.0,510.0,504.0,504.0,504.0,507.0,507.0,507.0,510.0,510.0,510.0,506.0,506.0,565.0,565.0,570.0,570.0,570.0,558.0,558.0,558.0,558.0,548.0,548.0,548.0,543.0,543.0,543.0,515.0,515.0,515.0,510.0,510.0,514.0,514.0,522.0,522.0,522.0,522.0,522.0,522.0,522.0,526.0,526.0,526.0,521.0,521.0,521.0,521.0,521.0,521.0,522.0,522.0
0,510.2,537.7111111111111,511.0888888888889,505.0,489.0,524.0,504.0,489.0,521.0,14.0,81.0,32.0,510.0,570.0,526.0,510.0,510.0,510.0,510.0,510.0,510.0,504.0,504.0,504.0,507.0,507.0,507.0,510.0,510.0,510.0,506.0,506.0,506.0,506.0,505.0,570.0,570.0,558.0,558.0,558.0,558.0,548.0,548.0,548.0,543.0,543.0,543.0,515.0,515.0,515.0,510.0,510.0,510.0,510.0,489.0,522.0,522.0,522.0,522.0,522.0,522.0,526.0,526.0,526.0,521.0,521.0,521.0,521.0,521.0,521.0,522.0,522.0,522.0,522.0,524.0
0,509.8222222222222,535.2666666666667,512.8,504.0,470.0,518.0,504.0,470.0,518.0,14.0,100.0,32.0,510.0,558.0,526.0,510.0,510.0,504.0,504.0,504.0,507.0,507.0,507.0,510.0,510.0,510.0,506.0,506.0,506.0,506.0,505.0,505.0,505.0,504.0,504.0,558.0,558.0,548.0,548.0,548.0,543.0,543.0,543.0,515.0,515.0,515.0,510.0,510.0,510.0,510.0,489.0,489.0,489.0,470.0,470.0,522.0,522.0,526.0,526.0,526.0,521.0,521.0,521.0,521.0,521.0,521.0,522.0,522.0,522.0,522.0,524.0,524.0,524.0,518.0,518.0
0,509.64444444444445,533.6222222222223,513.5555555555555,504.0,470.0,518.0,504.0,470.0,518.0,14.0,100.0,32.0,510.0,548.0,526.0,504.0,504.0,504.0,507.0,507.0,507.0,510.0,510.0,510.0,506.0,506.0,506.0,505.0,505.0,505.0,504.0,504.0,504.0,504.0,506.0,548.0,548.0,548.0,543.0,543.0,543.0,515.0,515.0,515.0,510.0,510.0,510.0,489.0,489.0,489.0,470.0,470.0,470.0,470.0,451.0,526.0,526.0,526.0,521.0,521.0,521.0,521.0,521.0,521.0,522.0,522.0,522.0,524.0,524.0,524.0,518.0,518.0,518.0,518.0,518.0
0,509.24444444444447,527.4888888888889,515.2888888888889,503.0,453.0,519.0,503.0,451.0,518.0,15.0,119.0,32.0,510.0,543.0,524.0,507.0,507.0,510.0,510.0,510.0,506.0,506.0,506.0,506.0,505.0,505.0,505.0,504.0,504.0,504.0,504.0,506.0,506.0,503.0,503.0,543.0,543.0,515.0,515.0,515.0,510.0,510.0,510.0,510.0,489.0,489.0,489.0,470.0,470.0,470.0,470.0,451.0,451.0,453.0,453.0,521.0,521.0,521.0,521.0,521.0,522.0,522.0,522.0,522.0,524.0,524.0,524.0,518.0,518.0,518.0,518.0,518.0,518.0,519.0,519.0
0,508.5111111111111,519.0666666666667,516.8,503.0,449.0,522.0,503.0,449.0,518.0,15.0,121.0,32.0,510.0,515.0,524.0,510.0,506.0,506.0,506.0,506.0,505.0,505.0,505.0,504.0,504.0,504.0,504.0,506.0,506.0,503.0,503.0,503.0,503.0,503.0,503.0,515.0,510.0,510.0,510.0,510.0,489.0,489.0,489.0,470.0,470.0,470.0,470.0,451.0,451.0,453.0,453.0,453.0,453.0,449.0,449.0,521.0,522.0,522.0,522.0,522.0,524.0,524.0,524.0,518.0,518.0,518.0,518.0,518.0,518.0,519.0,519.0,519.0,519.0,522.0,522.0
0,507.1333333333333,509.8666666666667,518.5333333333333,499.0,459.0,510.0,499.0,449.0,510.0,19.0,121.0,32.0,506.0,510.0,524.0,506.0,505.0,505.0,505.0,504.0,504.0,504.0,504.0,506.0,506.0,503.0,503.0,503.0,503.0,503.0,503.0,503.0,503.0,499.0,499.0,510.0,489.0,489.0,489.0,470.0,470.0,470.0,470.0,451.0,451.0,453.0,453.0,453.0,453.0,449.0,449.0,449.0,449.0,459.0,459.0,522.0,524.0,524.0,524.0,518.0,518.0,518.0,518.0,518.0,518.0,519.0,519.0,519.0,519.0,522.0,522.0,522.0,522.0,510.0,510.0
0,506.5111111111111,505.4888888888889,519.0222222222222,503.0,460.0,500.0,499.0,449.0,500.0,19.0,121.0,32.0,506.0,489.0,524.0,505.0,505.0,504.0,504.0,504.0,504.0,506.0,506.0,503.0,503.0,503.0,503.0,503.0,503.0,503.0,503.0,499.0,499.0,499.0,503.0,489.0,489.0,470.0,470.0,470.0,470.0,451.0,451.0,453.0,453.0,453.0,453.0,449.0,449.0,449.0,449.0,459.0,459.0,459.0,460.0,524.0,524.0,518.0,518.0,518.0,518.0,518.0,518.0,519.0,519.0,519.0,519.0,522.0,522.0,522.0,522.0,510.0,510.0,510.0,500.0
0,505.3777777777778,496.8,518.1777777777778,506.0,471.0,499.0,499.0,449.0,499.0,11.0,121.0,27.0,506.0,471.0,522.0,504.0,504.0,506.0,506.0,503.0,503.0,503.0,503.0,503.0,503.0,503.0,503.0,499.0,499.0,499.0,503.0,503.0,503.0,506.0,506.0,470.0,470.0,451.0,451.0,453.0,453.0,453.0,453.0,449.0,449.0,449.0,449.0,459.0,459.0,459.0,460.0,460.0,460.0,471.0,471.0,518.0,518.0,518.0,518.0,519.0,519.0,519.0,519.0,522.0,522.0,522.0,522.0,510.0,510.0,510.0,500.0,500.0,500.0,499.0,499.0
0,505.15555555555557,488.4888888888889,516.3555555555556,509.0,476.0,504.0,499.0,449.0,499.0,11.0,109.0,27.0,509.0,476.0,522.0,503.0,503.0,503.0,503.0,503.0,503.0,503.0,503.0,499.0,499.0,499.0,503.0,503.0,503.0,506.0,506.0,506.0,506.0,509.0,509.0,453.0,453.0,453.0,453.0,449.0,449.0,449.0,449.0,459.0,459.0,459.0,460.0,460.0,460.0,471.0,471.0,471.0,471.0,476.0,476.0,519.0,519.0,519.0,519.0,522.0,522.0,522.0,522.0,510.0,510.0,510.0,500.0,500.0,500.0,499.0,499.0,499.0,499.0,504.0,504.0
0,505.2888888888889,481.9111111111111,514.8,511.0,487.0,507.0,499.0,449.0,499.0,12.0,99.0,27.0,511.0,487.0,522.0,503.0,503.0,503.0,503.0,499.0,499.0,499.0,503.0,503.0,503.0,506.0,506.0,506.0,506.0,509.0,509.0,509.0,509.0,511.0,511.0,449.0,449.0,449.0,449.0,459.0,459.0,459.0,460.0,460.0,460.0,471.0,471.0,471.0,471.0,476.0,476.0,476.0,476.0,487.0,487.0,522.0,522.0,522.0,522.0,510.0,510.0,510.0,500.0,500.0,500.0,499.0,499.0,499.0,499.0,504.0,504.0,504.0,504.0,507.0,507.0
0,505.73333333333335,477.4222222222222,513.1111111111111,510.0,503.0,502.0,499.0,459.0,499.0,12.0,94.0,25.0,511.0,503.0,510.0,499.0,499.0,499.0,503.0,503.0,503.0,506.0,506.0,506.0,506.0,509.0,509.0,509.0,509.0,511.0,511.0,511.0,511.0,510.0,510.0,459.0,459.0,459.0,460.0,460.0,460.0,471.0,471.0,471.0,471.0,476.0,476.0,476.0,476.0,487.0,487.0,487.0,487.0,503.0,503.0,510.0,510.0,510.0,500.0,500.0,500.0,499.0,499.0,499.0,499.0,504.0,504.0,504.0,504.0,507.0,507.0,507.0,507.0,502.0,502.0
0,505.97777777777776,476.93333333333334,512.0666666666667,514.0,524.0,507.0,503.0,460.0,499.0,15.0,75.0,25.0,514.0,524.0,507.0,503.0,503.0,503.0,506.0,506.0,506.0,506.0,509.0,509.0,509.0,509.0,511.0,511.0,511.0,511.0,510.0,510.0,510.0,514.0,514.0,460.0,460.0,460.0,471.0,471.0,471.0,471.0,476.0,476.0,476.0,476.0,487.0,487.0,487.0,487.0,503.0,503.0,503.0,524.0,524.0,500.0,500.0,500.0,499.0,499.0,499.0,499.0,504.0,504.0,504.0,504.0,507.0,507.0,507.0,507.0,502.0,502.0,502.0,507.0,507.0
0,506.8,479.73333333333335,510.2888888888889,517.0,549.0,500.0,506.0,471.0,499.0,18.0,100.0,25.0,517.0,549.0,507.0,506.0,506.0,506.0,509.0,509.0,509.0,509.0,511.0,511.0,511.0,511.0,510.0,510.0,510.0,514.0,514.0,514.0,517.0,517.0,517.0,471.0,471.0,471.0,476.0,476.0,476.0,476.0,487.0,487.0,487.0,487.0,503.0,503.0,503.0,524.0,524.0,524.0,549.0,549.0,549.0,499.0,499.0,499.0,504.0,504.0,504.0,504.0,507.0,507.0,507.0,507.0,502.0,502.0,502.0,507.0,507.0,507.0,500.0,500.0,500.0
0,507.53333333333336,483.1333333333333,508.46666666666664,516.0,546.0,494.0,509.0,476.0,494.0,18.0,100.0,30.0,517.0,549.0,507.0,509.0,509.0,509.0,509.0,511.0,511.0,511.0,511.0,510.0,510.0,510.0,514.0,514.0,514.0,517.0,517.0,517.0,517.0,516.0,516.0,476.0,476.0,476.0,476.0,487.0,487.0,487.0,487.0,503.0,503.0,503.0,524.0,524.0,524.0,549.0,549.0,549.0,549.0,546.0,546.0,504.0,504.0,504.0,504.0,507.0,507.0,507.0,507.0,502.0,502.0,502.0,507.0,507.0,507.0,500.0,500.0,500.0,500.0,494.0,494.0
0,508.5777777777778,490.0444444444444,506.5111111111111,516.0,559.0,501.0,510.0,487.0,494.0,18.0,110.0,28.0,517.0,559.0,507.0,511.0,511.0,511.0,511.0,510.0,510.0,510.0,514.0,514.0,514.0,517.0,517.0,517.0,517.0,516.0,516.0,516.0,516.0,516.0,516.0,487.0,487.0,487.0,487.0,503.0,503.0,503.0,524.0,524.0,524.0,549.0,549.0,549.0,549.0,546.0,546.0,546.0,546.0,559.0,559.0,507.0,507.0,507.0,507.0,502.0,502.0,502.0,507.0,507.0,507.0,500.0,500.0,500.0,500.0,494.0,494.0,494.0,494.0,501.0,501.0
0,509.24444444444447,496.9111111111111,505.15555555555557,515.0,561.0,496.0,510.0,487.0,494.0,18.0,112.0,28.0,517.0,561.0,507.0,511.0,510.0,510.0,510.0,514.0,514.0,514.0,517.0,517.0,517.0,517.0,516.0,516.0,516.0,516.0,516.0,516.0,516.0,515.0,515.0,487.0,503.0,503.0,503.0,524.0,524.0,524.0,549.0,549.0,549.0,549.0,546.0,546.0,546.0,546.0,559.0,559.0,559.0,561.0,561.0,507.0,502.0,502.0,502.0,507.0,507.0,507.0,500.0,500.0,500.0,500.0,494.0,494.0,494.0,494.0,501.0,501.0,501.0,496.0,496.0
0,510.44444444444446,506.3333333333333,503.2,518.0,557.0,498.0,514.0,524.0,494.0,19.0,112.0,28.0,518.0,561.0,507.0,514.0,514.0,514.0,517.0,517.0,517.0,517.0,516.0,516.0,516.0,516.0,516.0,516.0,516.0,515.0,515.0,515.0,515.0,518.0,518.0,524.0,524.0,524.0,549.0,549.0,549.0,549.0,546.0,546.0,546.0,546.0,559.0,559.0,559.0,561.0,561.0,561.0,561.0,557.0,557.0,507.0,507.0,507.0,500.0,500.0,500.0,500.0,494.0,494.0,494.0,494.0,501.0,501.0,501.0,496.0,496.0,496.0,496.0,498.0,498.0
0,511.5111111111111,516.2,501.8666666666667,512.0,563.0,516.0,512.0,546.0,494.0,19.0,104.0,22.0,518.0,563.0,516.0,517.0,517.0,517.0,516.0,516.0,516.0,516.0,516.0,516.0,516.0,515.0,515.0,515.0,515.0,518.0,518.0,518.0,518.0,512.0,512.0,549.0,549.0,549.0,546.0,546.0,546.0,546.0,559.0,559.0,559.0,561.0,561.0,561.0,561.0,557.0,557.0,557.0,557.0,563.0,563.0,500.0,500.0,500.0,494.0,494.0,494.0,494.0,501.0,501.0,501.0,496.0,496.0,496.0,496.0,498.0,498.0,498.0,498.0,516.0,516.0
0,512.6,522.4222222222222,502.93333333333334,517.0,547.0,531.0,512.0,546.0,494.0,15.0,103.0,37.0,518.0,563.0,531.0,516.0,516.0,516.0,516.0,516.0,516.0,516.0,515.0,515.0,515.0,515.0,518.0,518.0,518.0,518.0,512.0,512.0,512.0,517.0,517.0,546.0,546.0,546.0,546.0,559.0,559.0,559.0,561.0,561.0,561.0,561.0,557.0,557.0,557.0,557.0,563.0,563.0,563.0,547.0,547.0,494.0,494.0,494.0,494.0,501.0,501.0,501.0,496.0,496.0,496.0,496.0,498.0,498.0,498.0,498.0,516.0,516.0,516.0,531.0,531.0
0,513.4444444444445,527.8666666666667,505.26666666666665,515.0,539.0,537.0,512.0,539.0,494.0,12.0,92.0,43.0,518.0,563.0,537.0,516.0,516.0,516.0,516.0,515.0,515.0,515.0,515.0,518.0,518.0,518.0,518.0,512.0,512.0,512.0,517.0,517.0,517.0,515.0,515.0,546.0,559.0,559.0,559.0,561.0,561.0,561.0,561.0,557.0,557.0,557.0,557.0,563.0,563.0,563.0,547.0,547.0,547.0,539.0,539.0,494.0,501.0,501.0,501.0,496.0,496.0,496.0,496.0,498.0,498.0,498.0,498.0,516.0,516.0,516.0,531.0,531.0,531.0,537.0,537.0
0,513.6444444444444,530.4888888888889,507.24444444444447,506.0,521.0,550.0,506.0,521.0,496.0,12.0,92.0,56.0,518.0,563.0,550.0,516.0,516.0,515.0,515.0,515.0,515.0,518.0,518.0,518.0,518.0,512.0,512.0,512.0,517.0,517.0,517.0,515.0,515.0,506.0,506.0,559.0,559.0,561.0,561.0,561.0,561.0,557.0,557.0,557.0,557.0,563.0,563.0,563.0,547.0,547.0,547.0,539.0,539.0,521.0,521.0,501.0,501.0,496.0,496.0,496.0,496.0,498.0,498.0,498.0,498.0,516.0,516.0,516.0,531.0,531.0,531.0,537.0,537.0,550.0,550.0
0,513.4666666666667,533.9555555555555,511.6,505.0,504.0,551.0,505.0,504.0,496.0,13.0,87.0,57.0,518.0,563.0,551.0,515.0,515.0,518.0,518.0,518.0,518.0,512.0,512.0,512.0,517.0,517.0,517.0,515.0,515.0,515.0,506.0,506.0,506.0,505.0,505.0,561.0,561.0,557.0,557.0,557.0,557.0,563.0,563.0,563.0,547.0,547.0,547.0,539.0,539.0,539.0,521.0,521.0,521.0,504.0,504.0,496.0,496.0,498.0,498.0,498.0,498.0,516.0,516.0,516.0,531.0,531.0,531.0,537.0,537.0,537.0,550.0,550.0,550.0,551.0,551.0
0,513.2,534.9555555555555,513.7777777777778,506.0,490.0,531.0,505.0,490.0,498.0,13.0,76.0,57.0,518.0,563.0,551.0,518.0,518.0,518.0,512.0,512.0,512.0,517.0,517.0,517.0,515.0,515.0,515.0,506.0,506.0,506.0,505.0,505.0,505.0,506.0,506.0,557.0,557.0,557.0,563.0,563.0,563.0,547.0,547.0,547.0,539.0,539.0,539.0,521.0,521.0,521.0,504.0,504.0,504.0,490.0,490.0,498.0,498.0,498.0,516.0,516.0,516.0,531.0,531.0,531.0,537.0,537.0,537.0,550.0,550.0,550.0,551.0,551.0,551.0,531.0,531.0
0,512.8444444444444,534.8888888888889,515.2666666666667,505.0,478.0,526.0,505.0,478.0,516.0,13.0,85.0,57.0,517.0,563.0,551.0,512.0,512.0,512.0,517.0,517.0,517.0,515.0,515.0,515.0,506.0,506.0,506.0,505.0,505.0,505.0,506.0,506.0,506.0,506.0,505.0,563.0,563.0,563.0,547.0,547.0,547.0,539.0,539.0,539.0,521.0,521.0,521.0,504.0,504.0,504.0,490.0,490.0,490.0,490.0,478.0,516.0,516.0,516.0,531.0,531.0,531.0,537.0,537.0,537.0,550.0,550.0,550.0,551.0,551.0,551.0,531.0,531.0,531.0,531.0,526.0
0,512.1777777777778,531.6666666666666,517.0222222222222,502.0,466.0,520.0,502.0,466.0,520.0,16.0,97.0,57.0,517.0,547.0,551.0,517.0,517.0,515.0,515.0,515.0,506.0,506.0,506.0,505.0,505.0,505.0,506.0,506.0,506.0,506.0,505.0,505.0,505.0,502.0,502.0,547.0,547.0,539.0,539.0,539.0,521.0,521.0,521.0,504.0,504.0,504.0,490.0,490.0,490.0,490.0,478.0,478.0,478.0,466.0,466.0,531.0,531.0,537.0,537.0,537.0,550.0,550.0,550.0,551.0,551.0,551.0,531.0,531.0,531.0,531.0,526.0,526.0,526.0,520.0,520.0
0,511.4,527.0666666666667,517.8222222222222,504.0,462.0,515.0,502.0,462.0,515.0,16.0,101.0,57.0,515.0,539.0,551.0,515.0,515.0,506.0,506.0,506.0,505.0,505.0,505.0,506.0,506.0,506.0,506.0,505.0,505.0,505.0,502.0,502.0,502.0,504.0,504.0,539.0,539.0,521.0,521.0,521.0,504.0,504.0,504.0,490.0,490.0,490.0,490.0,478.0,478.0,478.0,466.0,466.0,466.0,462.0,462.0,537.0,537.0,550.0,550.0,550.0,551.0,551.0,551.0,531.0,531.0,531.0,531.0,526.0,526.0,526.0,520.0,520.0,520.0,515.0,515.0
0,510.4,520.7333333333333,518.3333333333334,501.0,450.0,504.0,501.0,450.0,504.0,17.0,113.0,57.0,506.0,521.0,551.0,506.0,506.0,505.0,505.0,505.0,506.0,506.0,506.0,506.0,505.0,505.0,505.0,502.0,502.0,502.0,504.0,504.0,504.0,501.0,501.0,521.0,521.0,504.0,504.0,504.0,490.0,490.0,490.0,490.0,478.0,478.0,478.0,466.0,466.0,466.0,462.0,462.0,462.0,450.0,450.0,550.0,550.0,551.0,551.0,551.0,531.0,531.0,531.0,531.0,526.0,526.0,526.0,520.0,520.0,520.0,515.0,515.0,515.0,504.0,504.0
0,509.4888888888889,514.5111111111111,518.6888888888889,503.0,454.0,497.0,501.0,450.0,497.0,17.0,113.0,57.0,506.0,504.0,551.0,505.0,505.0,506.0,506.0,506.0,506.0,505.0,505.0,505.0,502.0,502.0,502.0,504.0,504.0,504.0,501.0,501.0,501.0,503.0,503.0,504.0,504.0,490.0,490.0,490.0,490.0,478.0,478.0,478.0,466.0,466.0,466.0,462.0,462.0,462.0,450.0,450.0,450.0,454.0,454.0,551.0,551.0,531.0,531.0,531.0,531.0,526.0,526.0,526.0,520.0,520.0,520.0,515.0,515.0,515.0,504.0,504.0,504.0,497.0,497.0
0,508.44444444444446,508.2,519.0666666666667,499.0,463.0,508.0,499.0,450.0,497.0,19.0,113.0,55.0,506.0,490.0,531.0,506.0,506.0,506.0,505.0,505.0,505.0,502.0,502.0,502.0,504.0,504.0,504.0,501.0,501.0,501.0,503.0,503.0,503.0,499.0,499.0,490.0,490.0,490.0,478.0,478.0,478.0,466.0,466.0,466.0,462.0,462.0,462.0,450.0,450.0,450.0,454.0,454.0,454.0,463.0,463.0,531.0,531.0,531.0,526.0,526.0,526.0,520.0,520.0,520.0,515.0,515.0,515.0,504.0,504.0,504.0,497.0,497.0,497.0,508.0,508.0
0,507.5777777777778,501.93333333333334,519.5777777777778,504.0,468.0,504.0,499.0,450.0,497.0,19.0,113.0,55.0,505.0,478.0,526.0,505.0,505.0,505.0,502.0,502.0,502.0,504.0,504.0,504.0,501.0,501.0,501.0,503.0,503.0,503.0,499.0,499.0,499.0,504.0,504.0,478.0,478.0,478.0,466.0,466.0,466.0,462.0,462.0,462.0,450.0,450.0,450.0,454.0,454.0,454.0,463.0,463.0,463.0,468.0,468.0,526.0,526.0,526.0,520.0,520.0,520.0,515.0,515.0,515.0,504.0,504.0,504.0,497.0,497.0,497.0,508.0,508.0,508.0,504.0,504.0
0,506.68888888888887,493.8888888888889,519.7111111111111,509.0,469.0,493.0,499.0,450.0,493.0,19.0,113.0,58.0,509.0,469.0,520.0,502.0,502.0,504.0,504.0,504.0,501.0,501.0,501.0,503.0,503.0,503.0,499.0,499.0,499.0,504.0,504.0,504.0,504.0,509.0,509.0,466.0,466.0,462.0,462.0,462.0,450.0,450.0,450.0,454.0,454.0,454.0,463.0,463.0,463.0,468.0,468.0,468.0,468.0,469.0,469.0,520.0,520.0,515.0,515.0,515.0,504.0,504.0,504.0,497.0,497.0,497.0,508.0,508.0,508.0,504.0,504.0,504.0,504.0,493.0,493.0
0,506.1333333333333,488.5111111111111,518.0444444444445,507.0,483.0,472.0,499.0,450.0,472.0,18.0,113.0,79.0,509.0,483.0,515.0,504.0,504.0,501.0,501.0,501.0,503.0,503.0,503.0,499.0,499.0,499.0,504.0,504.0,504.0,504.0,509.0,509.0,509.0,507.0,507.0,462.0,462.0,450.0,450.0,450.0,454.0,454.0,454.0,463.0,463.0,463.0,468.0,468.0,468.0,468.0,469.0,469.0,469.0,483.0,483.0,515.0,515.0,504.0,504.0,504.0,497.0,497.0,497.0,508.0,508.0,508.0,504.0,504.0,504.0,504.0,493.0,493.0,493.0,472.0,472.0
0,505.46666666666664,482.9555555555556,512.9777777777778,507.0,502.0,461.0,499.0,450.0,461.0,18.0,97.0,90.0,509.0,502.0,508.0,501.0,503.0,503.0,503.0,499.0,499.0,499.0,504.0,504.0,504.0,504.0,509.0,509.0,509.0,507.0,507.0,507.0,507.0,507.0,507.0,450.0,454.0,454.0,454.0,463.0,463.0,463.0,468.0,468.0,468.0,468.0,469.0,469.0,469.0,483.0,483.0,483.0,483.0,502.0,502.0,504.0,497.0,497.0,497.0,508.0,508.0,508.0,504.0,504.0,504.0,504.0,493.0,493.0,493.0,472.0,472.0,472.0,472.0,461.0,461.0
0,504.97777777777776,480.97777777777776,508.31111111111113,509.0,517.0,467.0,499.0,454.0,461.0,16.0,89.0,90.0,509.0,517.0,508.0,503.0,499.0,499.0,499.0,504.0,504.0,504.0,504.0,509.0,509.0,509.0,507.0,507.0,507.0,507.0,507.0,507.0,507.0,509.0,509.0,454.0,463.0,463.0,463.0,468.0,468.0,468.0,468.0,469.0,469.0,469.0,483.0,483.0,483.0,483.0,502.0,502.0,502.0,517.0,517.0,497.0,508.0,508.0,508.0,504.0,504.0,504.0,504.0,493.0,493.0,493.0,472.0,472.0,472.0,472.0,461.0,461.0,461.0,467.0,467.0
0,505.1111111111111,481.15555555555557,503.8666666666667,512.0,536.0,485.0,499.0,463.0,461.0,13.0,86.0,90.0,512.0,536.0,508.0,499.0,504.0,504.0,504.0,504.0,509.0,509.0,509.0,507.0,507.0,507.0,507.0,507.0,507.0,507.0,509.0,509.0,509.0,512.0,512.0,463.0,468.0,468.0,468.0,468.0,469.0,469.0,469.0,483.0,483.0,483.0,483.0,502.0,502.0,502.0,517.0,517.0,517.0,536.0,536.0,508.0,504.0,504.0,504.0,504.0,493.0,493.0,493.0,472.0,472.0,472.0,472.0,461.0,461.0,461.0,467.0,467.0,467.0,485.0,485.0
0,505.68888888888887,483.26666666666665,500.02222222222224,515.0,544.0,497.0,504.0,468.0,461.0,16.0,94.0,90.0,515.0,544.0,504.0,504.0,504.0,509.0,509.0,509.0,507.0,507.0,507.0,507.0,507.0,507.0,507.0,509.0,509.0,509.0,512.0,512.0,512.0,515.0,515.0,468.0,468.0,469.0,469.0,469.0,483.0,483.0,483.0,483.0,502.0,502.0,502.0,517.0,517.0,517.0,536.0,536.0,536.0,544.0,544.0,504.0,504.0,493.0,493.0,493.0,472.0,472.0,472.0,472.0,461.0,461.0,461.0,467.0,467.0,467.0,485.0,485.0,485.0,497.0,497.0
0,506.4888888888889,486.75555555555553,497.6,523.0,553.0,510.0,507.0,469.0,461.0,24.0,103.0,70.0,523.0,553.0,510.0,509.0,509.0,507.0,507.0,507.0,507.0,507.0,507.0,507.0,509.0,509.0,509.0,512.0,512.0,512.0,515.0,515.0,515.0,515.0,523.0,469.0,469.0,483.0,483.0,483.0,483.0,502.0,502.0,502.0,517.0,517.0,517.0,536.0,536.0,536.0,544.0,544.0,544.0,544.0,553.0,493.0,493.0,472.0,472.0,472.0,472.0,461.0,461.0,461.0,467.0,467.0,467.0,485.0,485.0,485.0,497.0,497.0,497.0,497.0,510.0
0,507.2888888888889,491.7111111111111,497.5111111111111,515.0,564.0,537.0,507.0,483.0,461.0,24.0,114.0,76.0,523.0,564.0,537.0,507.0,507.0,507.0,507.0,507.0,507.0,509.0,509.0,509.0,512.0,512.0,512.0,515.0,515.0,515.0,515.0,523.0,523.0,515.0,515.0,483.0,483.0,483.0,502.0,502.0,502.0,517.0,517.0,517.0,536.0,536.0,536.0,544.0,544.0,544.0,544.0,553.0,553.0,564.0,564.0,472.0,472.0,472.0,461.0,461.0,461.0,467.0,467.0,467.0,485.0,485.0,485.0,497.0,497.0,497.0,497.0,510.0,510.0,537.0,537.0
0,507.73333333333335,495.53333333333336,498.0,515.0,564.0,537.0,507.0,483.0,461.0,24.0,114.0,76.0,523.0,564.0,537.0,507.0,507.0,507.0,507.0,509.0,509.0,509.0,512.0,512.0,512.0,515.0,515.0,515.0,515.0,523.0,523.0,515.0,515.0,515.0,515.0,483.0,502.0,502.0,502.0,517.0,517.0,517.0,536.0,536.0,536.0,544.0,544.0,544.0,544.0,553.0,553.0,564.0,564.0,564.0,564.0,472.0,461.0,461.0,461.0,467.0,467.0,467.0,485.0,485.0,485.0,497.0,497.0,497.0,497.0,510.0,510.0,537.0,537.0,537.0,537.0
0,508.6,501.8,499.75555555555553,512.0,564.0,548.0,507.0,502.0,461.0,24.0,114.0,87.0,523.0,564.0,548.0,507.0,509.0,509.0,509.0,512.0,512.0,512.0,515.0,515.0,515.0,515.0,523.0,523.0,515.0,515.0,515.0,515.0,521.0,512.0,512.0,502.0,517.0,517.0,517.0,536.0,536.0,536.0,544.0,544.0,544.0,544.0,553.0,553.0,564.0,564.0,564.0,564.0,552.0,564.0,564.0,461.0,467.0,467.0,467.0,485.0,485.0,485.0,497.0,497.0,497.0,497.0,510.0,510.0,537.0,537.0,537.0,537.0,543.0,548.0,548.0
0,509.1333333333333,508.73333333333335,502.5777777777778,512.0,567.0,562.0,509.0,517.0,467.0,24.0,117.0,101.0,523.0,567.0,562.0,509.0,512.0,512.0,512.0,515.0,515.0,515.0,515.0,523.0,523.0,515.0,515.0,515.0,515.0,521.0,512.0,512.0,512.0,512.0,512.0,517.0,536.0,536.0,536.0,544.0,544.0,544.0,544.0,553.0,553.0,564.0,564.0,564.0,564.0,552.0,564.0,564.0,564.0,567.0,567.0,467.0,485.0,485.0,485.0,497.0,497.0,497.0,497.0,510.0,510.0,537.0,537.0,537.0,537.0,543.0,548.0,548.0,548.0,562.0,562.0
0,509.5111111111111,513.1111111111111,504.53333333333336,507.0,530.0,534.0,507.0,530.0,485.0,24.0,117.0,101.0,523.0,567.0,562.0,512.0,512.0,515.0,515.0,515.0,515.0,523.0,523.0,515.0,515.0,515.0,515.0,521.0,512.0,512.0,512.0,512.0,512.0,507.0,507.0,536.0,536.0,544.0,544.0,544.0,544.0,553.0,553.0,564.0,564.0,564.0,564.0,552.0,564.0,564.0,564.0,567.0,567.0,530.0,530.0,485.0,485.0,497.0,497.0,497.0,497.0,510.0,510.0,537.0,537.0,537.0,537.0,543.0,548.0,548.0,548.0,562.0,562.0,534.0,534.0
0,509.8888888888889,517.8666666666667,506.31111111111113,510.0,512.0,510.0,507.0,512.0,497.0,24.0,113.0,101.0,523.0,567.0,562.0,515.0,515.0,515.0,523.0,523.0,515.0,515.0,515.0,515.0,521.0,512.0,512.0,512.0,512.0,512.0,512.0,507.0,507.0,507.0,510.0,544.0,544.0,544.0,553.0,553.0,564.0,564.0,564.0,564.0,552.0,564.0,564.0,564.0,567.0,567.0,567.0,530.0,530.0,530.0,512.0,497.0,497.0,497.0,510.0,510.0,537.0,537.0,537.0,537.0,543.0,548.0,548.0,548.0,562.0,562.0,562.0,534.0,534.0,534.0,510.0
0,510.77777777777777,523.3555555555556,506.5111111111111,507.0,511.0,502.0,507.0,511.0,502.0,19.0,99.0,101.0,521.0,567.0,562.0,515.0,515.0,515.0,515.0,521.0,512.0,512.0,512.0,512.0,512.0,512.0,507.0,507.0,507.0,510.0,510.0,510.0,510.0,507.0,507.0,564.0,564.0,564.0,564.0,552.0,564.0,564.0,564.0,567.0,567.0,567.0,530.0,530.0,530.0,512.0,512.0,512.0,512.0,511.0,511.0,537.0,537.0,537.0,537.0,543.0,548.0,548.0,548.0,562.0,562.0,562.0,534.0,534.0,534.0,510.0,510.0,510.0,510.0,502.0,502.0
0,510.97777777777776,526.0,506.8222222222222,507.0,501.0,522.0,507.0,501.0,502.0,16.0,98.0,101.0,521.0,567.0,562.0,515.0,521.0,512.0,512.0,512.0,512.0,512.0,512.0,507.0,507.0,507.0,510.0,510.0,510.0,510.0,507.0,507.0,507.0,507.0,507.0,564.0,552.0,564.0,564.0,564.0,567.0,567.0,567.0,530.0,530.0,530.0,512.0,512.0,512.0,512.0,511.0,511.0,511.0,511.0,501.0,537.0,543.0,548.0,548.0,548.0,562.0,562.0,562.0,534.0,534.0,534.0,510.0,510.0,510.0,510.0,502.0,502.0,502.0,502.0,522.0
0,510.6222222222222,527.3333333333334,508.4888888888889,502.0,483.0,516.0,502.0,483.0,502.0,21.0,84.0,101.0,512.0,567.0,562.0,512.0,512.0,512.0,512.0,512.0,507.0,507.0,507.0,510.0,510.0,510.0,510.0,507.0,507.0,507.0,507.0,507.0,507.0,502.0,502.0,564.0,564.0,567.0,567.0,567.0,530.0,530.0,530.0,512.0,512.0,512.0,512.0,511.0,511.0,511.0,511.0,501.0,501.0,483.0,483.0,548.0,548.0,562.0,562.0,562.0,534.0,534.0,534.0,510.0,510.0,510.0,510.0,502.0,502.0,502.0,502.0,522.0,522.0,516.0,516.0
0,510.1111111111111,526.2,513.0,503.0,467.0,502.0,502.0,467.0,502.0,21.0,100.0,101.0,510.0,530.0,534.0,507.0,507.0,507.0,510.0,510.0,510.0,510.0,507.0,507.0,507.0,507.0,507.0,507.0,502.0,502.0,502.0,502.0,502.0,503.0,503.0,530.0,530.0,530.0,512.0,512.0,512.0,512.0,511.0,511.0,511.0,511.0,501.0,501.0,483.0,483.0,483.0,483.0,483.0,467.0,467.0,534.0,534.0,534.0,510.0,510.0,510.0,510.0,502.0,502.0,502.0,502.0,522.0,522.0,516.0,516.0,516.0,516.0,516.0,502.0,502.0
0,509.97777777777776,522.7333333333333,515.2444444444444,507.0,449.0,494.0,502.0,449.0,494.0,21.0,118.0,95.0,510.0,512.0,522.0,510.0,510.0,510.0,510.0,507.0,507.0,507.0,507.0,507.0,507.0,502.0,502.0,502.0,502.0,502.0,503.0,503.0,503.0,507.0,507.0,512.0,512.0,512.0,512.0,511.0,511.0,511.0,511.0,501.0,501.0,483.0,483.0,483.0,483.0,483.0,467.0,467.0,467.0,449.0,449.0,510.0,510.0,510.0,510.0,502.0,502.0,502.0,502.0,522.0,522.0,516.0,516.0,516.0,516.0,516.0,502.0,502.0,502.0,494.0,494.0
