,emg_max_0,emg_max_1,emg_max_2,emg_0,emg_1,emg_2,emg_med_0,emg_med_1,emg_med_2,emg_prev_0_0,emg_prev_0_1,emg_prev_0_2,emg_prev_0_3,emg_prev_0_4,emg_prev_0_5,emg_prev_0_6,emg_prev_0_7,emg_prev_0_8,emg_prev_0_9,emg_prev_0_10,emg_prev_0_11,emg_prev_0_12,emg_prev_0_13,emg_prev_0_14,emg_prev_0_15,emg_prev_0_16,emg_prev_0_17,emg_prev_0_18,emg_prev_0_19,emg_prev_1_0,emg_prev_1_1,emg_prev_1_2,emg_prev_1_3,emg_prev_1_4,emg_prev_1_5,emg_prev_1_6,emg_prev_1_7,emg_prev_1_8,emg_prev_1_9,emg_prev_1_10,emg_prev_1_11,emg_prev_1_12,emg_prev_1_13,emg_prev_1_14,emg_prev_1_15,emg_prev_1_16,emg_prev_1_17,emg_prev_1_18,emg_prev_1_19,emg_prev_2_0,emg_prev_2_1,emg_prev_2_2,emg_prev_2_3,emg_prev_2_4,emg_prev_2_5,emg_prev_2_6,emg_prev_2_7,emg_prev_2_8,emg_prev_2_9,emg_prev_2_10,emg_prev_2_11,emg_prev_2_12,emg_prev_2_13,emg_prev_2_14,emg_prev_2_15,emg_prev_2_16,emg_prev_2_17,emg_prev_2_18,emg_prev_2_19,emg_min_0,emg_min_1,emg_min_2,emg_ampl_0,emg_ampl_1,emg_ampl_2
0,0.0,0.0,0.0,0.0,0.0,0.0,0.0,0.0,0.0,0.0,0.0,0.0,0.0,0.0,0.0,0.0,0.0,0.0,0.0,0.0,0.0,0.0,0.0,0.0,0.0,0.0,0.0,0.0,0.0,0.0,0.0,0.0,0.0,0.0,0.0,0.0,0.0,0.0,0.0,0.0,0.0,0.0,0.0,0.0,0.0,0.0,0.0,0.0,0.0,0.0,0.0,0.0,0.0,0.0,0.0,0.0,0.0,0.0,0.0,0.0,0.0,0.0,0.0,0.0,0.0,0.0,0.0,0.0,0.0,0.0,0.0,0.0,0.0,0.0,0.0
0,513.0,513.0,556.0,509.0,511.0,556.0,508.55555555555554,506.0,516.8888888888889,513.0,513.0,513.0,513.0,513.0,508.0,508.0,508.0,508.0,508.0,508.0,508.0,508.0,508.0,509.0,509.0,509.0,509.0,509.0,510.0,513.0,513.0,513.0,513.0,513.0,510.0,510.0,510.0,510.0,510.0,511.0,511.0,511.0,511.0,511.0,511.0,511.0,511.0,511.0,517.0,526.0,526.0,526.0,526.0,526.0,538.0,538.0,538.0,538.0,538.0,550.0,550.0,550.0,550.0,556.0,556.0,556.0,556.0,556.0,558.0,508.0,510.0,526.0,10.0,20.0,74.0
0,512.0,517.0,558.0,512.0,507.0,547.0,509.3777777777778,508.44444444444446,524.4222222222222,508.0,508.0,508.0,508.0,508.0,508.0,508.0,508.0,508.0,508.0,509.0,509.0,509.0,509.0,509.0,510.0,510.0,510.0,510.0,512.0,510.0,510.0,510.0,510.0,510.0,511.0,511.0,511.0,511.0,511.0,511.0,511.0,511.0,511.0,511.0,517.0,517.0,517.0,517.0,507.0,538.0,538.0,538.0,538.0,538.0,550.0,550.0,550.0,550.0,550.0,556.0,556.0,556.0,556.0,556.0,558.0,558.0,558.0,558.0,547.0,508.0,507.0,538.0,5.0,23.0,76.0
0,512.0,517.0,558.0,509.0,508.0,534.0,509.4888888888889,509.6222222222222,529.9111111111112,508.0,508.0,508.0,508.0,508.0,508.0,509.0,509.0,509.0,509.0,510.0,510.0,510.0,510.0,512.0,512.0,512.0,512.0,509.0,509.0,510.0,511.0,511.0,511.0,511.0,511.0,511.0,511.0,511.0,511.0,517.0,517.0,517.0,517.0,507.0,507.0,507.0,507.0,508.0,508.0,538.0,550.0,550.0,550.0,550.0,550.0,556.0,556.0,556.0,556.0,558.0,558.0,558.0,558.0,547.0,547.0,547.0,547.0,534.0,534.0,508.0,507.0,534.0,5.0,23.0,76.0
0,512.0,517.0,558.0,504.0,507.0,525.0,509.44444444444446,510.44444444444446,535.1333333333333,508.0,509.0,509.0,509.0,509.0,509.0,510.0,510.0,510.0,510.0,512.0,512.0,512.0,512.0,509.0,509.0,509.0,509.0,504.0,504.0,511.0,511.0,511.0,511.0,511.0,511.0,517.0,517.0,517.0,517.0,507.0,507.0,507.0,508.0,508.0,508.0,508.0,508.0,507.0,507.0,550.0,556.0,556.0,556.0,556.0,556.0,558.0,558.0,558.0,558.0,547.0,547.0,547.0,534.0,534.0,534.0,534.0,534.0,525.0,525.0,504.0,507.0,525.0,9.0,15.0,72.0
0,512.0,517.0,558.0,504.0,515.0,517.0,509.02222222222224,510.53333333333336,537.0888888888888,509.0,509.0,510.0,510.0,510.0,510.0,512.0,512.0,512.0,512.0,509.0,509.0,509.0,509.0,509.0,504.0,504.0,504.0,504.0,504.0,511.0,511.0,517.0,517.0,517.0,517.0,507.0,507.0,507.0,507.0,508.0,508.0,508.0,508.0,508.0,507.0,507.0,507.0,515.0,515.0,556.0,556.0,558.0,558.0,558.0,558.0,547.0,547.0,547.0,547.0,534.0,534.0,534.0,534.0,525.0,525.0,525.0,525.0,517.0,517.0,504.0,507.0,517.0,9.0,10.0,52.0
0,512.0,517.0,558.0,505.0,516.0,496.0,508.6,511.0,536.9777777777778,510.0,510.0,512.0,512.0,512.0,512.0,509.0,509.0,509.0,509.0,509.0,504.0,504.0,504.0,504.0,504.0,504.0,504.0,505.0,505.0,517.0,517.0,507.0,507.0,507.0,507.0,508.0,508.0,508.0,508.0,508.0,507.0,507.0,507.0,507.0,515.0,515.0,515.0,516.0,516.0,558.0,558.0,547.0,547.0,547.0,547.0,534.0,534.0,534.0,534.0,534.0,525.0,525.0,525.0,525.0,517.0,517.0,517.0,496.0,496.0,504.0,507.0,496.0,9.0,10.0,62.0
0,512.0,516.0,547.0,500.0,515.0,493.0,507.8666666666667,511.5111111111111,533.9777777777778,512.0,509.0,509.0,509.0,509.0,509.0,504.0,504.0,504.0,504.0,504.0,504.0,504.0,504.0,505.0,505.0,505.0,505.0,505.0,500.0,507.0,508.0,508.0,508.0,508.0,508.0,507.0,507.0,507.0,507.0,515.0,515.0,515.0,515.0,516.0,516.0,516.0,516.0,516.0,515.0,547.0,534.0,534.0,534.0,534.0,534.0,525.0,525.0,525.0,525.0,517.0,517.0,517.0,517.0,496.0,496.0,496.0,496.0,496.0,493.0,500.0,507.0,493.0,13.0,10.0,65.0
0,509.0,516.0,534.0,507.0,507.0,493.0,506.8,511.68888888888887,529.7777777777778,509.0,504.0,504.0,504.0,504.0,504.0,504.0,504.0,504.0,505.0,505.0,505.0,505.0,505.0,500.0,500.0,500.0,500.0,500.0,507.0,508.0,507.0,507.0,507.0,507.0,515.0,515.0,515.0,515.0,516.0,516.0,516.0,516.0,516.0,515.0,515.0,515.0,515.0,515.0,507.0,534.0,525.0,525.0,525.0,525.0,517.0,517.0,517.0,517.0,496.0,496.0,496.0,496.0,496.0,493.0,493.0,493.0,493.0,493.0,493.0,500.0,507.0,493.0,12.0,10.0,65.0
0,507.0,516.0,517.0,502.0,512.0,478.0,506.5777777777778,511.4222222222222,523.9111111111112,504.0,504.0,504.0,504.0,505.0,505.0,505.0,505.0,505.0,500.0,500.0,500.0,500.0,500.0,507.0,507.0,507.0,507.0,507.0,502.0,515.0,515.0,515.0,515.0,516.0,516.0,516.0,516.0,516.0,515.0,515.0,515.0,515.0,515.0,507.0,507.0,507.0,507.0,507.0,512.0,517.0,517.0,517.0,517.0,496.0,496.0,496.0,496.0,496.0,493.0,493.0,493.0,493.0,493.0,493.0,493.0,493.0,493.0,493.0,478.0,500.0,507.0,478.0,12.0,10.0,80.0
0,507.0,516.0,496.0,503.0,498.0,473.0,505.8888888888889,511.22222222222223,515.5333333333333,505.0,505.0,505.0,505.0,500.0,500.0,500.0,500.0,500.0,507.0,507.0,507.0,507.0,507.0,502.0,502.0,502.0,502.0,502.0,503.0,516.0,516.0,516.0,516.0,515.0,515.0,515.0,515.0,515.0,507.0,507.0,507.0,507.0,507.0,512.0,512.0,512.0,512.0,512.0,498.0,496.0,496.0,496.0,496.0,493.0,493.0,493.0,493.0,493.0,493.0,493.0,493.0,493.0,493.0,478.0,478.0,478.0,478.0,478.0,473.0,500.0,498.0,473.0,12.0,19.0,85.0
0,507.0,515.0,493.0,506.0,497.0,483.0,505.24444444444447,509.4888888888889,506.44444444444446,500.0,500.0,500.0,500.0,507.0,507.0,507.0,507.0,507.0,502.0,502.0,502.0,502.0,502.0,503.0,503.0,503.0,503.0,503.0,506.0,515.0,515.0,515.0,515.0,507.0,507.0,507.0,507.0,507.0,512.0,512.0,512.0,512.0,512.0,498.0,498.0,498.0,498.0,498.0,497.0,493.0,493.0,493.0,493.0,493.0,493.0,493.0,493.0,493.0,478.0,478.0,478.0,478.0,478.0,473.0,473.0,473.0,473.0,473.0,483.0,500.0,497.0,473.0,12.0,20.0,85.0
0,507.0,512.0,493.0,505.0,489.0,491.0,504.75555555555553,507.8,500.6222222222222,507.0,507.0,507.0,507.0,507.0,502.0,502.0,502.0,502.0,502.0,503.0,503.0,503.0,503.0,503.0,506.0,506.0,506.0,505.0,505.0,507.0,507.0,507.0,507.0,507.0,512.0,512.0,512.0,512.0,512.0,498.0,498.0,498.0,498.0,498.0,497.0,497.0,497.0,489.0,489.0,493.0,493.0,493.0,493.0,493.0,478.0,478.0,478.0,478.0,478.0,473.0,473.0,473.0,473.0,473.0,483.0,483.0,483.0,491.0,491.0,502.0,489.0,473.0,12.0,27.0,74.0
0,514.0,512.0,494.0,514.0,482.0,494.0,504.3777777777778,505.5777777777778,495.3333333333333,502.0,502.0,502.0,502.0,502.0,503.0,503.0,503.0,503.0,503.0,506.0,506.0,506.0,505.0,505.0,505.0,505.0,505.0,505.0,514.0,512.0,512.0,512.0,512.0,512.0,498.0,498.0,498.0,498.0,498.0,497.0,497.0,497.0,489.0,489.0,489.0,489.0,489.0,489.0,482.0,478.0,478.0,478.0,478.0,478.0,473.0,473.0,473.0,473.0,473.0,483.0,483.0,483.0,491.0,491.0,491.0,491.0,491.0,491.0,494.0,502.0,482.0,473.0,14.0,34.0,61.0
0,514.0,498.0,494.0,511.0,492.0,485.0,505.2,502.97777777777776,491.2888888888889,503.0,503.0,503.0,503.0,503.0,506.0,506.0,506.0,505.0,505.0,505.0,505.0,505.0,505.0,514.0,514.0,514.0,514.0,511.0,511.0,498.0,498.0,498.0,498.0,498.0,497.0,497.0,497.0,489.0,489.0,489.0,489.0,489.0,489.0,482.0,482.0,482.0,482.0,492.0,492.0,473.0,473.0,473.0,473.0,473.0,483.0,483.0,483.0,491.0,491.0,491.0,491.0,491.0,491.0,494.0,494.0,494.0,494.0,485.0,485.0,503.0,482.0,473.0,14.0,34.0,52.0
0,514.0,504.0,494.0,507.0,504.0,484.0,505.93333333333334,500.6,487.26666666666665,506.0,506.0,505.0,505.0,505.0,505.0,505.0,505.0,514.0,514.0,514.0,514.0,514.0,511.0,511.0,511.0,511.0,511.0,507.0,507.0,497.0,497.0,489.0,489.0,489.0,489.0,489.0,489.0,482.0,482.0,482.0,482.0,482.0,492.0,492.0,492.0,492.0,492.0,504.0,504.0,483.0,483.0,491.0,491.0,491.0,491.0,491.0,491.0,494.0,494.0,494.0,494.0,494.0,485.0,485.0,485.0,485.0,485.0,484.0,484.0,505.0,482.0,483.0,14.0,34.0,23.0
0,514.0,506.0,494.0,508.0,506.0,485.0,506.31111111111113,499.3777777777778,486.0444444444444,505.0,505.0,505.0,514.0,514.0,514.0,514.0,514.0,511.0,511.0,511.0,511.0,511.0,507.0,507.0,507.0,507.0,507.0,508.0,508.0,489.0,489.0,489.0,482.0,482.0,482.0,482.0,482.0,492.0,492.0,492.0,492.0,492.0,504.0,504.0,504.0,504.0,504.0,506.0,506.0,491.0,491.0,491.0,494.0,494.0,494.0,494.0,494.0,485.0,485.0,485.0,485.0,485.0,484.0,484.0,484.0,484.0,484.0,485.0,485.0,505.0,482.0,484.0,14.0,33.0,21.0
0,514.0,517.0,494.0,509.0,517.0,491.0,507.1111111111111,499.02222222222224,485.24444444444447,514.0,514.0,511.0,511.0,511.0,511.0,511.0,507.0,507.0,507.0,507.0,507.0,508.0,508.0,508.0,508.0,508.0,508.0,509.0,509.0,482.0,482.0,492.0,492.0,492.0,492.0,492.0,504.0,504.0,504.0,504.0,504.0,506.0,506.0,506.0,506.0,506.0,506.0,517.0,517.0,494.0,494.0,485.0,485.0,485.0,485.0,485.0,484.0,484.0,484.0,484.0,484.0,485.0,485.0,485.0,485.0,485.0,485.0,491.0,491.0,507.0,482.0,484.0,12.0,35.0,21.0
0,511.0,517.0,509.0,510.0,517.0,509.0,507.6,499.9111111111111,486.4888888888889,511.0,511.0,507.0,507.0,507.0,507.0,507.0,508.0,508.0,508.0,508.0,508.0,508.0,509.0,509.0,509.0,509.0,509.0,510.0,510.0,492.0,492.0,504.0,504.0,504.0,504.0,504.0,506.0,506.0,506.0,506.0,506.0,506.0,517.0,517.0,517.0,517.0,517.0,517.0,517.0,485.0,485.0,484.0,484.0,484.0,484.0,484.0,485.0,485.0,485.0,485.0,485.0,485.0,491.0,491.0,491.0,491.0,491.0,509.0,509.0,507.0,492.0,484.0,12.0,35.0,36.0
0,510.0,517.0,519.0,510.0,513.0,519.0,508.44444444444446,500.9111111111111,490.6,507.0,507.0,508.0,508.0,508.0,508.0,508.0,508.0,509.0,509.0,509.0,509.0,509.0,510.0,510.0,510.0,510.0,510.0,510.0,510.0,504.0,504.0,506.0,506.0,506.0,506.0,506.0,506.0,517.0,517.0,517.0,517.0,517.0,517.0,517.0,517.0,517.0,517.0,513.0,513.0,484.0,484.0,485.0,485.0,485.0,485.0,485.0,485.0,491.0,491.0,491.0,491.0,491.0,509.0,509.0,509.0,509.0,509.0,519.0,519.0,507.0,504.0,484.0,11.0,35.0,46.0
0,510.0,518.0,525.0,508.0,518.0,525.0,509.0888888888889,503.2,496.3333333333333,508.0,508.0,509.0,509.0,509.0,509.0,509.0,510.0,510.0,510.0,510.0,510.0,510.0,510.0,510.0,510.0,510.0,510.0,508.0,508.0,506.0,506.0,517.0,517.0,517.0,517.0,517.0,517.0,517.0,517.0,517.0,517.0,513.0,513.0,513.0,513.0,513.0,513.0,518.0,518.0,485.0,485.0,491.0,491.0,491.0,491.0,491.0,509.0,509.0,509.0,509.0,509.0,519.0,519.0,519.0,519.0,519.0,519.0,525.0,525.0,508.0,506.0,485.0,9.0,36.0,41.0
0,510.0,518.0,532.0,509.0,513.0,532.0,509.53333333333336,506.84444444444443,501.1777777777778,509.0,510.0,510.0,510.0,510.0,510.0,510.0,510.0,510.0,510.0,510.0,510.0,508.0,508.0,508.0,508.0,508.0,508.0,509.0,509.0,517.0,517.0,517.0,517.0,517.0,517.0,513.0,513.0,513.0,513.0,513.0,513.0,518.0,518.0,518.0,518.0,518.0,518.0,513.0,513.0,491.0,509.0,509.0,509.0,509.0,509.0,519.0,519.0,519.0,519.0,519.0,519.0,525.0,525.0,525.0,525.0,525.0,525.0,532.0,532.0,508.0,513.0,491.0,7.0,36.0,48.0
0,510.0,518.0,540.0,504.0,508.0,540.0,508.7111111111111,510.53333333333336,506.8,510.0,510.0,510.0,510.0,510.0,510.0,508.0,508.0,508.0,508.0,508.0,508.0,509.0,509.0,509.0,509.0,509.0,509.0,504.0,504.0,513.0,513.0,513.0,513.0,513.0,513.0,518.0,518.0,518.0,518.0,518.0,518.0,513.0,513.0,513.0,513.0,513.0,513.0,508.0,508.0,519.0,519.0,519.0,519.0,519.0,519.0,525.0,525.0,525.0,525.0,525.0,525.0,532.0,532.0,532.0,532.0,532.0,532.0,540.0,540.0,504.0,508.0,519.0,7.0,26.0,56.0
0,512.0,518.0,540.0,512.0,502.0,539.0,508.26666666666665,511.8222222222222,511.6666666666667,510.0,510.0,508.0,508.0,508.0,508.0,508.0,508.0,509.0,509.0,509.0,509.0,509.0,509.0,504.0,504.0,504.0,504.0,504.0,512.0,513.0,513.0,518.0,518.0,518.0,518.0,518.0,518.0,513.0,513.0,513.0,513.0,513.0,513.0,508.0,508.0,508.0,508.0,508.0,502.0,519.0,519.0,525.0,525.0,525.0,525.0,525.0,525.0,532.0,532.0,532.0,532.0,532.0,532.0,540.0,540.0,540.0,540.0,540.0,539.0,504.0,502.0,519.0,8.0,16.0,56.0
0,512.0,518.0,540.0,511.0,501.0,537.0,508.6666666666667,511.6,516.4666666666667,508.0,508.0,508.0,508.0,509.0,509.0,509.0,509.0,509.0,509.0,504.0,504.0,504.0,504.0,504.0,512.0,512.0,512.0,511.0,511.0,518.0,518.0,518.0,518.0,513.0,513.0,513.0,513.0,513.0,513.0,508.0,508.0,508.0,508.0,508.0,502.0,502.0,502.0,501.0,501.0,525.0,525.0,525.0,525.0,532.0,532.0,532.0,532.0,532.0,532.0,540.0,540.0,540.0,540.0,540.0,539.0,539.0,539.0,537.0,537.0,504.0,501.0,525.0,8.0,17.0,56.0
0,512.0,513.0,540.0,506.0,498.0,512.0,508.73333333333335,511.06666666666666,520.0,509.0,509.0,509.0,509.0,509.0,509.0,504.0,504.0,504.0,504.0,504.0,512.0,512.0,512.0,511.0,511.0,511.0,511.0,506.0,506.0,513.0,513.0,513.0,513.0,513.0,513.0,508.0,508.0,508.0,508.0,508.0,502.0,502.0,502.0,501.0,501.0,501.0,501.0,498.0,498.0,532.0,532.0,532.0,532.0,532.0,532.0,540.0,540.0,540.0,540.0,540.0,539.0,539.0,539.0,537.0,537.0,537.0,537.0,512.0,512.0,504.0,498.0,512.0,8.0,20.0,55.0
0,512.0,513.0,540.0,509.0,504.0,519.0,508.73333333333335,510.8,522.1111111111111,509.0,509.0,509.0,504.0,504.0,504.0,504.0,504.0,512.0,512.0,512.0,511.0,511.0,511.0,511.0,506.0,506.0,506.0,509.0,509.0,513.0,513.0,513.0,508.0,508.0,508.0,508.0,508.0,502.0,502.0,502.0,501.0,501.0,501.0,501.0,498.0,498.0,498.0,504.0,504.0,532.0,532.0,532.0,540.0,540.0,540.0,540.0,540.0,539.0,539.0,539.0,537.0,537.0,537.0,537.0,512.0,512.0,512.0,519.0,519.0,504.0,498.0,512.0,8.0,20.0,49.0
0,513.0,512.0,540.0,513.0,512.0,521.0,508.8222222222222,509.8222222222222,524.6444444444444,504.0,504.0,504.0,504.0,512.0,512.0,512.0,511.0,511.0,511.0,511.0,506.0,506.0,506.0,509.0,509.0,509.0,509.0,509.0,513.0,508.0,508.0,508.0,508.0,502.0,502.0,502.0,501.0,501.0,501.0,501.0,498.0,498.0,498.0,504.0,504.0,504.0,504.0,504.0,512.0,540.0,540.0,540.0,540.0,539.0,539.0,539.0,537.0,537.0,537.0,537.0,512.0,512.0,512.0,519.0,519.0,519.0,519.0,519.0,521.0,504.0,498.0,512.0,9.0,20.0,49.0
0,513.0,512.0,539.0,504.0,512.0,518.0,508.77777777777777,509.26666666666665,526.2444444444444,512.0,512.0,511.0,511.0,511.0,511.0,506.0,506.0,506.0,509.0,509.0,509.0,509.0,509.0,513.0,513.0,513.0,513.0,504.0,504.0,502.0,502.0,501.0,501.0,501.0,501.0,498.0,498.0,498.0,504.0,504.0,504.0,504.0,504.0,512.0,512.0,512.0,512.0,512.0,512.0,539.0,539.0,537.0,537.0,537.0,537.0,512.0,512.0,512.0,519.0,519.0,519.0,519.0,519.0,521.0,521.0,521.0,521.0,518.0,518.0,504.0,498.0,512.0,9.0,20.0,31.0
0,513.0,512.0,537.0,503.0,506.0,507.0,508.06666666666666,508.8,525.8666666666667,511.0,506.0,506.0,506.0,509.0,509.0,509.0,509.0,509.0,513.0,513.0,513.0,513.0,504.0,504.0,504.0,504.0,504.0,503.0,503.0,501.0,498.0,498.0,498.0,504.0,504.0,504.0,504.0,504.0,512.0,512.0,512.0,512.0,512.0,512.0,512.0,512.0,512.0,506.0,506.0,537.0,512.0,512.0,512.0,519.0,519.0,519.0,519.0,519.0,521.0,521.0,521.0,521.0,518.0,518.0,518.0,518.0,518.0,507.0,507.0,503.0,498.0,507.0,10.0,20.0,33.0
0,513.0,514.0,521.0,507.0,514.0,503.0,507.7111111111111,508.31111111111113,524.3555555555556,509.0,509.0,509.0,509.0,509.0,513.0,513.0,513.0,513.0,504.0,504.0,504.0,504.0,504.0,503.0,503.0,503.0,503.0,507.0,507.0,504.0,504.0,504.0,504.0,504.0,512.0,512.0,512.0,512.0,512.0,512.0,512.0,512.0,512.0,506.0,506.0,506.0,506.0,514.0,514.0,519.0,519.0,519.0,519.0,519.0,521.0,521.0,521.0,521.0,518.0,518.0,518.0,518.0,518.0,507.0,507.0,507.0,507.0,503.0,503.0,503.0,504.0,503.0,10.0,20.0,37.0
0,513.0,514.0,521.0,506.0,510.0,505.0,507.6,507.8666666666667,522.9777777777778,509.0,509.0,513.0,513.0,513.0,513.0,504.0,504.0,504.0,504.0,504.0,503.0,503.0,503.0,503.0,507.0,507.0,507.0,506.0,506.0,504.0,504.0,512.0,512.0,512.0,512.0,512.0,512.0,512.0,512.0,512.0,506.0,506.0,506.0,506.0,514.0,514.0,514.0,510.0,510.0,519.0,519.0,521.0,521.0,521.0,521.0,518.0,518.0,518.0,518.0,518.0,507.0,507.0,507.0,507.0,503.0,503.0,503.0,505.0,505.0,503.0,504.0,503.0,10.0,20.0,37.0
0,513.0,514.0,521.0,506.0,507.0,496.0,507.35555555555555,507.35555555555555,520.3333333333334,513.0,513.0,504.0,504.0,504.0,504.0,504.0,503.0,503.0,503.0,503.0,507.0,507.0,507.0,506.0,506.0,506.0,506.0,506.0,506.0,512.0,512.0,512.0,512.0,512.0,512.0,512.0,506.0,506.0,506.0,506.0,514.0,514.0,514.0,510.0,510.0,510.0,510.0,507.0,507.0,521.0,521.0,518.0,518.0,518.0,518.0,518.0,507.0,507.0,507.0,507.0,503.0,503.0,503.0,505.0,505.0,505.0,505.0,496.0,496.0,503.0,506.0,496.0,10.0,16.0,44.0
0,507.0,514.0,518.0,506.0,507.0,496.0,507.2,506.93333333333334,516.9555555555555,504.0,504.0,504.0,503.0,503.0,503.0,503.0,507.0,507.0,507.0,506.0,506.0,506.0,506.0,506.0,506.0,506.0,506.0,506.0,506.0,512.0,512.0,512.0,506.0,506.0,506.0,506.0,514.0,514.0,514.0,510.0,510.0,510.0,510.0,507.0,507.0,507.0,507.0,507.0,507.0,518.0,518.0,518.0,507.0,507.0,507.0,507.0,503.0,503.0,503.0,505.0,505.0,505.0,505.0,496.0,496.0,496.0,496.0,496.0,496.0,503.0,506.0,496.0,10.0,16.0,44.0
0,512.0,514.0,507.0,508.0,500.0,485.0,507.73333333333335,506.77777777777777,511.3333333333333,503.0,503.0,507.0,507.0,507.0,506.0,506.0,506.0,506.0,506.0,506.0,506.0,506.0,506.0,506.0,512.0,512.0,512.0,508.0,508.0,506.0,506.0,514.0,514.0,514.0,510.0,510.0,510.0,510.0,507.0,507.0,507.0,507.0,507.0,507.0,509.0,509.0,509.0,500.0,500.0,507.0,507.0,503.0,503.0,503.0,505.0,505.0,505.0,505.0,496.0,496.0,496.0,496.0,496.0,496.0,492.0,492.0,492.0,485.0,485.0,503.0,500.0,485.0,10.0,16.0,54.0
0,512.0,514.0,505.0,507.0,494.0,480.0,507.46666666666664,506.53333333333336,507.6666666666667,507.0,507.0,506.0,506.0,506.0,506.0,506.0,506.0,506.0,506.0,506.0,506.0,512.0,512.0,512.0,508.0,508.0,508.0,508.0,507.0,514.0,514.0,510.0,510.0,510.0,510.0,507.0,507.0,507.0,507.0,507.0,507.0,509.0,509.0,509.0,500.0,500.0,500.0,500.0,494.0,503.0,503.0,505.0,505.0,505.0,505.0,496.0,496.0,496.0,496.0,496.0,496.0,492.0,492.0,492.0,485.0,485.0,485.0,485.0,480.0,506.0,494.0,480.0,10.0,20.0,57.0
0,512.0,510.0,505.0,507.0,494.0,480.0,507.2888888888889,506.22222222222223,505.1333333333333,506.0,506.0,506.0,506.0,506.0,506.0,506.0,506.0,506.0,506.0,512.0,512.0,512.0,508.0,508.0,508.0,508.0,507.0,507.0,507.0,510.0,510.0,510.0,510.0,507.0,507.0,507.0,507.0,507.0,507.0,509.0,509.0,509.0,500.0,500.0,500.0,500.0,494.0,494.0,494.0,505.0,505.0,505.0,505.0,496.0,496.0,496.0,496.0,496.0,496.0,492.0,492.0,492.0,485.0,485.0,485.0,485.0,480.0,480.0,480.0,506.0,494.0,480.0,10.0,20.0,57.0
0,514.0,509.0,496.0,514.0,495.0,488.0,507.68888888888887,505.9555555555556,502.1777777777778,506.0,506.0,506.0,506.0,506.0,506.0,512.0,512.0,512.0,508.0,508.0,508.0,508.0,507.0,507.0,507.0,511.0,511.0,511.0,514.0,507.0,507.0,507.0,507.0,507.0,507.0,509.0,509.0,509.0,500.0,500.0,500.0,500.0,494.0,494.0,494.0,496.0,496.0,496.0,495.0,496.0,496.0,496.0,496.0,496.0,496.0,492.0,492.0,492.0,485.0,485.0,485.0,485.0,480.0,480.0,480.0,484.0,484.0,484.0,488.0,506.0,494.0,480.0,11.0,20.0,41.0
0,514.0,509.0,496.0,508.0,500.0,487.0,507.8666666666667,505.3777777777778,499.3777777777778,506.0,506.0,512.0,512.0,512.0,508.0,508.0,508.0,508.0,507.0,507.0,507.0,511.0,511.0,511.0,514.0,514.0,514.0,508.0,508.0,507.0,507.0,509.0,509.0,509.0,500.0,500.0,500.0,500.0,494.0,494.0,494.0,496.0,496.0,496.0,495.0,495.0,495.0,500.0,500.0,496.0,496.0,492.0,492.0,492.0,485.0,485.0,485.0,485.0,480.0,480.0,480.0,484.0,484.0,484.0,488.0,488.0,488.0,487.0,487.0,506.0,494.0,480.0,11.0,20.0,41.0
0,514.0,509.0,492.0,508.0,500.0,487.0,507.6222222222222,504.75555555555553,497.15555555555557,512.0,512.0,508.0,508.0,508.0,508.0,507.0,507.0,507.0,511.0,511.0,511.0,514.0,514.0,514.0,508.0,508.0,508.0,508.0,508.0,509.0,509.0,500.0,500.0,500.0,500.0,494.0,494.0,494.0,496.0,496.0,496.0,495.0,495.0,495.0,500.0,500.0,500.0,500.0,500.0,492.0,492.0,485.0,485.0,485.0,485.0,480.0,480.0,480.0,484.0,484.0,484.0,488.0,488.0,488.0,487.0,487.0,487.0,487.0,487.0,507.0,494.0,480.0,11.0,20.0,41.0
0,514.0,507.0,496.0,510.0,507.0,496.0,508.02222222222224,504.0,492.75555555555553,507.0,507.0,507.0,511.0,511.0,511.0,514.0,514.0,514.0,508.0,508.0,508.0,508.0,508.0,510.0,510.0,510.0,510.0,510.0,510.0,494.0,494.0,494.0,496.0,496.0,496.0,495.0,495.0,495.0,500.0,500.0,500.0,500.0,500.0,506.0,506.0,506.0,506.0,507.0,507.0,480.0,480.0,480.0,484.0,484.0,484.0,488.0,488.0,488.0,487.0,487.0,487.0,487.0,487.0,481.0,481.0,481.0,481.0,496.0,496.0,507.0,494.0,480.0,11.0,20.0,38.0
0,514.0,510.0,515.0,513.0,510.0,515.0,508.6,504.06666666666666,492.6222222222222,511.0,511.0,511.0,514.0,514.0,514.0,508.0,508.0,508.0,508.0,508.0,510.0,510.0,510.0,510.0,510.0,510.0,510.0,513.0,513.0,496.0,496.0,496.0,495.0,495.0,495.0,500.0,500.0,500.0,500.0,500.0,506.0,506.0,506.0,506.0,507.0,507.0,507.0,510.0,510.0,484.0,484.0,484.0,488.0,488.0,488.0,487.0,487.0,487.0,487.0,487.0,481.0,481.0,481.0,481.0,496.0,496.0,496.0,515.0,515.0,508.0,495.0,481.0,11.0,20.0,35.0
0,514.0,513.0,534.0,511.0,513.0,534.0,509.22222222222223,504.2,494.35555555555555,514.0,514.0,508.0,508.0,508.0,508.0,508.0,510.0,510.0,510.0,510.0,510.0,510.0,510.0,513.0,513.0,513.0,513.0,511.0,511.0,495.0,495.0,500.0,500.0,500.0,500.0,500.0,506.0,506.0,506.0,506.0,507.0,507.0,507.0,510.0,510.0,510.0,510.0,513.0,513.0,488.0,488.0,487.0,487.0,487.0,487.0,487.0,481.0,481.0,481.0,481.0,496.0,496.0,496.0,515.0,515.0,515.0,515.0,534.0,534.0,508.0,495.0,481.0,8.0,20.0,54.0
0,513.0,513.0,542.0,507.0,507.0,542.0,509.35555555555555,504.0444444444444,496.68888888888887,508.0,508.0,508.0,508.0,510.0,510.0,510.0,510.0,510.0,510.0,510.0,513.0,513.0,513.0,513.0,511.0,511.0,511.0,507.0,507.0,500.0,500.0,500.0,500.0,506.0,506.0,506.0,506.0,507.0,507.0,507.0,510.0,510.0,510.0,510.0,513.0,513.0,513.0,507.0,507.0,487.0,487.0,487.0,487.0,481.0,481.0,481.0,481.0,496.0,496.0,496.0,515.0,515.0,515.0,515.0,534.0,534.0,534.0,542.0,542.0,507.0,500.0,481.0,8.0,19.0,62.0
0,513.0,513.0,542.0,505.0,511.0,538.0,509.35555555555555,504.0888888888889,500.2,510.0,510.0,510.0,510.0,510.0,510.0,510.0,513.0,513.0,513.0,513.0,511.0,511.0,511.0,507.0,507.0,507.0,507.0,505.0,505.0,506.0,506.0,506.0,506.0,507.0,507.0,507.0,510.0,510.0,510.0,510.0,513.0,513.0,513.0,507.0,507.0,507.0,507.0,511.0,511.0,481.0,481.0,481.0,481.0,496.0,496.0,496.0,515.0,515.0,515.0,515.0,534.0,534.0,534.0,542.0,542.0,542.0,542.0,538.0,538.0,505.0,506.0,481.0,9.0,19.0,62.0
0,515.0,514.0,550.0,515.0,514.0,550.0,509.7111111111111,504.5777777777778,504.46666666666664,510.0,510.0,510.0,513.0,513.0,513.0,513.0,511.0,511.0,511.0,507.0,507.0,507.0,507.0,505.0,505.0,505.0,505.0,515.0,515.0,507.0,507.0,507.0,510.0,510.0,510.0,510.0,513.0,513.0,513.0,507.0,507.0,507.0,507.0,511.0,511.0,511.0,511.0,514.0,514.0,496.0,496.0,496.0,515.0,515.0,515.0,515.0,534.0,534.0,534.0,542.0,542.0,542.0,542.0,538.0,538.0,538.0,538.0,550.0,550.0,505.0,507.0,496.0,10.0,20.0,70.0
0,515.0,514.0,550.0,508.0,507.0,544.0,509.75555555555553,504.9111111111111,509.5111111111111,513.0,513.0,513.0,511.0,511.0,511.0,507.0,507.0,507.0,507.0,505.0,505.0,505.0,505.0,515.0,515.0,515.0,515.0,508.0,508.0,510.0,510.0,510.0,513.0,513.0,513.0,507.0,507.0,507.0,507.0,511.0,511.0,511.0,511.0,514.0,514.0,514.0,514.0,507.0,507.0,515.0,515.0,515.0,534.0,534.0,534.0,542.0,542.0,542.0,542.0,538.0,538.0,538.0,538.0,550.0,550.0,550.0,550.0,544.0,544.0,505.0,507.0,515.0,10.0,20.0,70.0
0,515.0,514.0,550.0,506.0,506.0,539.0,509.68888888888887,505.6222222222222,514.6444444444444,511.0,511.0,507.0,507.0,507.0,507.0,505.0,505.0,505.0,505.0,515.0,515.0,515.0,515.0,508.0,508.0,508.0,508.0,506.0,506.0,513.0,513.0,507.0,507.0,507.0,507.0,511.0,511.0,511.0,511.0,514.0,514.0,514.0,514.0,507.0,507.0,507.0,507.0,506.0,506.0,534.0,534.0,542.0,542.0,542.0,542.0,538.0,538.0,538.0,538.0,550.0,550.0,550.0,550.0,544.0,544.0,544.0,544.0,539.0,539.0,505.0,506.0,534.0,10.0,20.0,70.0
0,516.0,514.0,550.0,516.0,509.0,536.0,509.97777777777776,506.5111111111111,518.3555555555556,507.0,507.0,507.0,505.0,505.0,505.0,505.0,515.0,515.0,515.0,515.0,508.0,508.0,508.0,508.0,506.0,506.0,506.0,516.0,516.0,507.0,507.0,507.0,511.0,511.0,511.0,511.0,514.0,514.0,514.0,514.0,507.0,507.0,507.0,507.0,506.0,506.0,506.0,509.0,509.0,542.0,542.0,542.0,538.0,538.0,538.0,538.0,550.0,550.0,550.0,550.0,544.0,544.0,544.0,544.0,539.0,539.0,539.0,536.0,536.0,505.0,506.0,536.0,11.0,19.0,69.0
0,516.0,514.0,611.0,503.0,497.0,611.0,509.6666666666667,506.8666666666667,525.0666666666667,505.0,505.0,505.0,505.0,515.0,515.0,515.0,515.0,508.0,508.0,508.0,508.0,506.0,506.0,506.0,516.0,516.0,516.0,503.0,503.0,511.0,511.0,511.0,511.0,514.0,514.0,514.0,514.0,507.0,507.0,507.0,507.0,506.0,506.0,506.0,509.0,509.0,509.0,497.0,497.0,538.0,538.0,538.0,538.0,550.0,550.0,550.0,550.0,544.0,544.0,544.0,544.0,539.0,539.0,539.0,536.0,536.0,536.0,611.0,611.0,503.0,497.0,536.0,13.0,19.0,130.0
0,516.0,514.0,661.0,506.0,507.0,661.0,509.02222222222224,507.0444444444444,537.1555555555556,515.0,515.0,515.0,515.0,508.0,508.0,508.0,508.0,506.0,506.0,506.0,516.0,516.0,516.0,503.0,503.0,503.0,503.0,503.0,506.0,514.0,514.0,514.0,514.0,507.0,507.0,507.0,507.0,506.0,506.0,506.0,509.0,509.0,509.0,497.0,497.0,497.0,497.0,497.0,507.0,550.0,550.0,550.0,550.0,544.0,544.0,544.0,544.0,539.0,539.0,539.0,536.0,536.0,536.0,611.0,611.0,611.0,611.0,611.0,661.0,503.0,497.0,536.0,13.0,17.0,180.0
0,516.0,518.0,661.0,505.0,518.0,565.0,508.77777777777777,507.77777777777777,550.6222222222223,508.0,508.0,508.0,508.0,506.0,506.0,506.0,516.0,516.0,516.0,503.0,503.0,503.0,503.0,503.0,506.0,506.0,506.0,506.0,505.0,507.0,507.0,507.0,507.0,506.0,506.0,506.0,509.0,509.0,509.0,497.0,497.0,497.0,497.0,497.0,507.0,507.0,507.0,507.0,518.0,544.0,544.0,544.0,544.0,539.0,539.0,539.0,536.0,536.0,536.0,611.0,611.0,611.0,611.0,611.0,661.0,661.0,661.0,661.0,565.0,503.0,497.0,536.0,13.0,21.0,180.0
0,516.0,518.0,661.0,505.0,518.0,565.0,508.44444444444446,508.5777777777778,556.2222222222222,508.0,506.0,506.0,506.0,516.0,516.0,516.0,503.0,503.0,503.0,503.0,503.0,506.0,506.0,506.0,506.0,505.0,505.0,505.0,508.0,507.0,506.0,506.0,506.0,509.0,509.0,509.0,497.0,497.0,497.0,497.0,497.0,507.0,507.0,507.0,507.0,518.0,518.0,518.0,506.0,544.0,539.0,539.0,539.0,536.0,536.0,536.0,611.0,611.0,611.0,611.0,611.0,661.0,661.0,661.0,661.0,565.0,565.0,565.0,501.0,503.0,497.0,536.0,13.0,21.0,165.0
0,516.0,518.0,661.0,508.0,506.0,501.0,508.0888888888889,508.3333333333333,555.9333333333333,516.0,516.0,503.0,503.0,503.0,503.0,503.0,506.0,506.0,506.0,506.0,505.0,505.0,505.0,505.0,508.0,508.0,508.0,508.0,508.0,509.0,509.0,497.0,497.0,497.0,497.0,497.0,507.0,507.0,507.0,507.0,518.0,518.0,518.0,518.0,506.0,506.0,506.0,506.0,504.0,536.0,536.0,611.0,611.0,611.0,611.0,611.0,661.0,661.0,661.0,661.0,565.0,565.0,565.0,565.0,501.0,501.0,501.0,501.0,486.0,503.0,497.0,501.0,13.0,21.0,160.0
0,508.0,518.0,661.0,506.0,510.0,485.0,507.6,507.6666666666667,550.1555555555556,503.0,506.0,506.0,506.0,506.0,505.0,505.0,505.0,505.0,508.0,508.0,508.0,508.0,508.0,508.0,508.0,508.0,508.0,506.0,506.0,497.0,507.0,507.0,507.0,507.0,518.0,518.0,518.0,518.0,506.0,506.0,506.0,506.0,506.0,504.0,504.0,504.0,504.0,510.0,510.0,611.0,661.0,661.0,661.0,661.0,565.0,565.0,565.0,565.0,501.0,501.0,501.0,501.0,501.0,486.0,486.0,486.0,486.0,485.0,485.0,503.0,497.0,485.0,13.0,21.0,176.0
0,516.0,518.0,661.0,516.0,515.0,471.0,507.97777777777776,508.0888888888889,545.7333333333333,506.0,506.0,505.0,505.0,505.0,505.0,508.0,508.0,508.0,508.0,508.0,508.0,508.0,508.0,508.0,506.0,506.0,506.0,516.0,516.0,507.0,507.0,518.0,518.0,518.0,518.0,506.0,506.0,506.0,506.0,506.0,504.0,504.0,504.0,504.0,510.0,510.0,510.0,515.0,515.0,661.0,661.0,565.0,565.0,565.0,565.0,501.0,501.0,501.0,501.0,501.0,486.0,486.0,486.0,486.0,485.0,485.0,485.0,471.0,471.0,505.0,504.0,471.0,13.0,21.0,190.0
0,516.0,518.0,565.0,507.0,507.0,472.0,508.55555555555554,508.0888888888889,539.8222222222222,505.0,505.0,508.0,508.0,508.0,508.0,508.0,508.0,508.0,508.0,508.0,506.0,506.0,506.0,516.0,516.0,516.0,516.0,507.0,507.0,518.0,518.0,506.0,506.0,506.0,506.0,506.0,504.0,504.0,504.0,504.0,510.0,510.0,510.0,515.0,515.0,515.0,515.0,507.0,507.0,565.0,565.0,501.0,501.0,501.0,501.0,501.0,486.0,486.0,486.0,486.0,485.0,485.0,485.0,471.0,471.0,471.0,471.0,472.0,472.0,505.0,504.0,471.0,13.0,21.0,190.0
0,516.0,515.0,501.0,512.0,488.0,464.0,508.06666666666666,506.6222222222222,532.5333333333333,508.0,508.0,508.0,508.0,508.0,508.0,508.0,506.0,506.0,506.0,516.0,516.0,516.0,516.0,507.0,507.0,507.0,507.0,512.0,512.0,506.0,506.0,506.0,504.0,504.0,504.0,504.0,510.0,510.0,510.0,515.0,515.0,515.0,515.0,507.0,507.0,507.0,507.0,488.0,488.0,501.0,501.0,501.0,486.0,486.0,486.0,486.0,485.0,485.0,485.0,471.0,471.0,471.0,471.0,472.0,472.0,472.0,472.0,464.0,464.0,506.0,488.0,464.0,13.0,30.0,197.0
0,516.0,515.0,486.0,509.0,489.0,467.0,508.2888888888889,504.97777777777776,525.5555555555555,508.0,508.0,508.0,506.0,506.0,506.0,516.0,516.0,516.0,516.0,507.0,507.0,507.0,507.0,512.0,512.0,512.0,512.0,509.0,509.0,504.0,504.0,504.0,510.0,510.0,510.0,515.0,515.0,515.0,515.0,507.0,507.0,507.0,507.0,488.0,488.0,488.0,488.0,489.0,489.0,486.0,486.0,486.0,485.0,485.0,485.0,471.0,471.0,471.0,471.0,472.0,472.0,472.0,472.0,464.0,464.0,464.0,464.0,467.0,467.0,506.0,488.0,464.0,13.0,30.0,197.0
0,516.0,515.0,485.0,513.0,498.0,459.0,508.5111111111111,503.8,518.8666666666667,506.0,506.0,516.0,516.0,516.0,516.0,507.0,507.0,507.0,507.0,512.0,512.0,512.0,512.0,509.0,509.0,509.0,509.0,513.0,513.0,510.0,510.0,515.0,515.0,515.0,515.0,507.0,507.0,507.0,507.0,488.0,488.0,488.0,488.0,489.0,489.0,489.0,489.0,498.0,498.0,485.0,485.0,471.0,471.0,471.0,471.0,472.0,472.0,472.0,472.0,464.0,464.0,464.0,464.0,467.0,467.0,467.0,467.0,459.0,459.0,506.0,488.0,459.0,13.0,30.0,202.0
0,516.0,515.0,472.0,504.0,496.0,445.0,508.4222222222222,503.26666666666665,508.06666666666666,516.0,516.0,507.0,507.0,507.0,507.0,512.0,512.0,512.0,512.0,509.0,509.0,509.0,509.0,513.0,513.0,513.0,513.0,504.0,504.0,515.0,515.0,507.0,507.0,507.0,507.0,488.0,488.0,488.0,488.0,489.0,489.0,489.0,489.0,498.0,498.0,498.0,498.0,496.0,496.0,471.0,471.0,472.0,472.0,472.0,472.0,464.0,464.0,464.0,464.0,467.0,467.0,467.0,467.0,459.0,459.0,459.0,459.0,445.0,445.0,504.0,488.0,445.0,13.0,30.0,216.0
0,513.0,509.0,472.0,510.0,509.0,462.0,508.7111111111111,503.53333333333336,492.9555555555556,507.0,507.0,512.0,512.0,512.0,512.0,509.0,509.0,509.0,509.0,513.0,513.0,513.0,513.0,504.0,504.0,504.0,504.0,510.0,510.0,507.0,507.0,488.0,488.0,488.0,488.0,489.0,489.0,489.0,489.0,498.0,498.0,498.0,498.0,496.0,496.0,496.0,496.0,509.0,509.0,472.0,472.0,464.0,464.0,464.0,464.0,467.0,467.0,467.0,467.0,459.0,459.0,459.0,459.0,445.0,445.0,445.0,445.0,462.0,462.0,504.0,488.0,445.0,12.0,30.0,216.0
0,513.0,516.0,481.0,511.0,516.0,481.0,509.1111111111111,503.6222222222222,477.8222222222222,512.0,512.0,509.0,509.0,509.0,509.0,513.0,513.0,513.0,513.0,504.0,504.0,504.0,504.0,510.0,510.0,510.0,510.0,510.0,511.0,488.0,488.0,489.0,489.0,489.0,489.0,498.0,498.0,498.0,498.0,496.0,496.0,496.0,496.0,509.0,509.0,509.0,509.0,509.0,516.0,464.0,464.0,467.0,467.0,467.0,467.0,459.0,459.0,459.0,459.0,445.0,445.0,445.0,445.0,462.0,462.0,462.0,462.0,462.0,481.0,504.0,488.0,445.0,12.0,30.0,120.0
0,513.0,516.0,487.0,509.0,515.0,487.0,509.4888888888889,503.6666666666667,472.0444444444444,509.0,509.0,513.0,513.0,513.0,513.0,504.0,504.0,504.0,504.0,510.0,510.0,510.0,510.0,510.0,511.0,511.0,511.0,509.0,509.0,489.0,489.0,498.0,498.0,498.0,498.0,496.0,496.0,496.0,496.0,509.0,509.0,509.0,509.0,509.0,516.0,516.0,516.0,515.0,515.0,467.0,467.0,459.0,459.0,459.0,459.0,445.0,445.0,445.0,445.0,462.0,462.0,462.0,462.0,462.0,481.0,481.0,481.0,487.0,487.0,504.0,489.0,445.0,12.0,28.0,56.0
0,513.0,516.0,499.0,511.0,496.0,499.0,509.6666666666667,503.6222222222222,471.3333333333333,513.0,513.0,504.0,504.0,504.0,504.0,510.0,510.0,510.0,510.0,510.0,511.0,511.0,511.0,509.0,509.0,509.0,509.0,511.0,511.0,498.0,498.0,496.0,496.0,496.0,496.0,509.0,509.0,509.0,509.0,509.0,516.0,516.0,516.0,515.0,515.0,515.0,515.0,496.0,496.0,459.0,459.0,445.0,445.0,445.0,445.0,462.0,462.0,462.0,462.0,462.0,481.0,481.0,481.0,487.0,487.0,487.0,487.0,499.0,499.0,504.0,496.0,445.0,12.0,28.0,54.0
0,513.0,516.0,525.0,513.0,507.0,525.0,509.9555555555556,503.5777777777778,473.35555555555555,504.0,504.0,504.0,510.0,510.0,510.0,510.0,510.0,511.0,511.0,511.0,509.0,509.0,509.0,509.0,511.0,511.0,511.0,513.0,513.0,496.0,496.0,496.0,509.0,509.0,509.0,509.0,509.0,516.0,516.0,516.0,515.0,515.0,515.0,515.0,496.0,496.0,496.0,507.0,507.0,445.0,445.0,445.0,462.0,462.0,462.0,462.0,462.0,481.0,481.0,481.0,487.0,487.0,487.0,487.0,499.0,499.0,499.0,525.0,525.0,504.0,496.0,445.0,12.0,28.0,80.0
0,513.0,517.0,546.0,513.0,517.0,546.0,510.3777777777778,503.9555555555556,476.93333333333334,510.0,510.0,510.0,510.0,510.0,511.0,511.0,511.0,509.0,509.0,509.0,509.0,511.0,511.0,511.0,513.0,513.0,513.0,513.0,513.0,509.0,509.0,509.0,509.0,509.0,516.0,516.0,516.0,515.0,515.0,515.0,515.0,496.0,496.0,496.0,507.0,507.0,507.0,517.0,517.0,462.0,462.0,462.0,462.0,462.0,481.0,481.0,481.0,487.0,487.0,487.0,487.0,499.0,499.0,499.0,525.0,525.0,525.0,546.0,546.0,509.0,496.0,462.0,12.0,29.0,101.0
0,513.0,517.0,546.0,506.0,509.0,529.0,510.02222222222224,503.8888888888889,482.53333333333336,510.0,511.0,511.0,511.0,509.0,509.0,509.0,509.0,511.0,511.0,511.0,513.0,513.0,513.0,513.0,513.0,513.0,513.0,506.0,506.0,509.0,516.0,516.0,516.0,515.0,515.0,515.0,515.0,496.0,496.0,496.0,507.0,507.0,507.0,517.0,517.0,517.0,517.0,509.0,509.0,462.0,481.0,481.0,481.0,487.0,487.0,487.0,487.0,499.0,499.0,499.0,525.0,525.0,525.0,546.0,546.0,546.0,546.0,529.0,529.0,506.0,496.0,462.0,12.0,29.0,101.0
0,513.0,517.0,546.0,504.0,514.0,537.0,509.6666666666667,504.06666666666666,486.7111111111111,511.0,509.0,509.0,509.0,509.0,511.0,511.0,511.0,513.0,513.0,513.0,513.0,513.0,513.0,513.0,506.0,506.0,506.0,504.0,504.0,516.0,515.0,515.0,515.0,515.0,496.0,496.0,496.0,507.0,507.0,507.0,517.0,517.0,517.0,517.0,509.0,509.0,509.0,514.0,514.0,481.0,487.0,487.0,487.0,487.0,499.0,499.0,499.0,525.0,525.0,525.0,546.0,546.0,546.0,546.0,529.0,529.0,529.0,537.0,537.0,504.0,496.0,481.0,9.0,29.0,101.0
0,513.0,517.0,546.0,504.0,514.0,537.0,509.35555555555555,504.9555555555556,491.22222222222223,509.0,509.0,511.0,511.0,511.0,513.0,513.0,513.0,513.0,513.0,513.0,513.0,506.0,506.0,506.0,504.0,504.0,504.0,504.0,504.0,515.0,515.0,496.0,496.0,496.0,507.0,507.0,507.0,517.0,517.0,517.0,517.0,509.0,509.0,509.0,514.0,514.0,514.0,514.0,514.0,487.0,487.0,499.0,499.0,499.0,525.0,525.0,525.0,546.0,546.0,546.0,546.0,529.0,529.0,529.0,537.0,537.0,537.0,537.0,537.0,504.0,496.0,487.0,9.0,29.0,101.0
0,513.0,517.0,546.0,505.0,505.0,541.0,508.84444444444443,507.4,499.5777777777778,513.0,513.0,513.0,513.0,513.0,513.0,513.0,506.0,506.0,506.0,504.0,504.0,504.0,504.0,504.0,507.0,507.0,507.0,505.0,505.0,507.0,507.0,507.0,517.0,517.0,517.0,517.0,509.0,509.0,509.0,514.0,514.0,514.0,514.0,514.0,514.0,514.0,514.0,505.0,505.0,525.0,525.0,525.0,546.0,546.0,546.0,546.0,529.0,529.0,529.0,537.0,537.0,537.0,537.0,537.0,540.0,540.0,540.0,541.0,541.0,504.0,505.0,525.0,9.0,28.0,101.0
0,513.0,517.0,546.0,503.0,503.0,528.0,508.22222222222223,508.3333333333333,505.93333333333334,513.0,513.0,513.0,506.0,506.0,506.0,504.0,504.0,504.0,504.0,504.0,507.0,507.0,507.0,505.0,505.0,505.0,505.0,503.0,503.0,517.0,517.0,517.0,509.0,509.0,509.0,514.0,514.0,514.0,514.0,514.0,514.0,514.0,514.0,505.0,505.0,505.0,505.0,503.0,503.0,546.0,546.0,546.0,529.0,529.0,529.0,537.0,537.0,537.0,537.0,537.0,540.0,540.0,540.0,541.0,541.0,541.0,541.0,528.0,528.0,503.0,503.0,528.0,10.0,21.0,101.0
0,507.0,514.0,541.0,506.0,513.0,520.0,507.8666666666667,509.31111111111113,512.3333333333334,506.0,506.0,504.0,504.0,504.0,504.0,504.0,507.0,507.0,507.0,505.0,505.0,505.0,505.0,503.0,503.0,503.0,503.0,506.0,506.0,509.0,509.0,514.0,514.0,514.0,514.0,514.0,514.0,514.0,514.0,505.0,505.0,505.0,505.0,503.0,503.0,503.0,503.0,513.0,513.0,529.0,529.0,537.0,537.0,537.0,537.0,537.0,540.0,540.0,540.0,541.0,541.0,541.0,541.0,528.0,528.0,528.0,528.0,520.0,520.0,503.0,503.0,520.0,10.0,21.0,101.0
0,507.0,514.0,541.0,503.0,508.0,517.0,507.64444444444445,510.02222222222224,518.1111111111111,504.0,504.0,504.0,507.0,507.0,507.0,505.0,505.0,505.0,505.0,503.0,503.0,503.0,503.0,506.0,506.0,506.0,506.0,503.0,503.0,514.0,514.0,514.0,514.0,514.0,514.0,505.0,505.0,505.0,505.0,503.0,503.0,503.0,503.0,513.0,513.0,513.0,513.0,508.0,508.0,537.0,537.0,537.0,540.0,540.0,540.0,541.0,541.0,541.0,541.0,528.0,528.0,528.0,528.0,520.0,520.0,520.0,520.0,517.0,517.0,503.0,503.0,517.0,10.0,21.0,84.0
0,507.0,514.0,541.0,504.0,513.0,508.0,507.0444444444444,510.0,522.1777777777778,507.0,507.0,505.0,505.0,505.0,505.0,503.0,503.0,503.0,503.0,506.0,506.0,506.0,506.0,503.0,503.0,503.0,503.0,504.0,504.0,514.0,514.0,505.0,505.0,505.0,505.0,503.0,503.0,503.0,503.0,513.0,513.0,513.0,513.0,508.0,508.0,508.0,508.0,513.0,513.0,540.0,540.0,541.0,541.0,541.0,541.0,528.0,528.0,528.0,528.0,520.0,520.0,520.0,520.0,517.0,517.0,517.0,517.0,508.0,508.0,503.0,503.0,508.0,10.0,21.0,65.0
0,508.0,513.0,541.0,508.0,511.0,496.0,506.68888888888887,509.68888888888887,523.7777777777778,505.0,505.0,503.0,503.0,503.0,503.0,506.0,506.0,506.0,506.0,503.0,503.0,503.0,503.0,504.0,504.0,504.0,504.0,508.0,508.0,505.0,505.0,503.0,503.0,503.0,503.0,513.0,513.0,513.0,513.0,508.0,508.0,508.0,508.0,513.0,513.0,513.0,513.0,511.0,511.0,541.0,541.0,528.0,528.0,528.0,528.0,520.0,520.0,520.0,520.0,517.0,517.0,517.0,517.0,508.0,508.0,508.0,508.0,496.0,496.0,503.0,503.0,496.0,10.0,21.0,59.0
0,511.0,513.0,528.0,511.0,507.0,497.0,506.7111111111111,509.6666666666667,524.1555555555556,503.0,503.0,503.0,506.0,506.0,506.0,506.0,503.0,503.0,503.0,503.0,504.0,504.0,504.0,504.0,508.0,508.0,508.0,511.0,511.0,503.0,503.0,503.0,513.0,513.0,513.0,513.0,508.0,508.0,508.0,508.0,513.0,513.0,513.0,513.0,511.0,511.0,511.0,507.0,507.0,528.0,528.0,528.0,520.0,520.0,520.0,520.0,517.0,517.0,517.0,517.0,508.0,508.0,508.0,508.0,496.0,496.0,496.0,497.0,497.0,503.0,503.0,496.0,10.0,21.0,50.0
0,511.0,513.0,520.0,509.0,496.0,491.0,506.53333333333336,509.6666666666667,522.5555555555555,506.0,506.0,506.0,503.0,503.0,503.0,503.0,504.0,504.0,504.0,504.0,508.0,508.0,508.0,511.0,511.0,511.0,511.0,509.0,509.0,513.0,513.0,513.0,508.0,508.0,508.0,508.0,513.0,513.0,513.0,513.0,511.0,511.0,511.0,507.0,507.0,507.0,507.0,496.0,496.0,520.0,520.0,520.0,517.0,517.0,517.0,517.0,508.0,508.0,508.0,508.0,496.0,496.0,496.0,497.0,497.0,497.0,497.0,491.0,491.0,503.0,496.0,491.0,10.0,21.0,55.0
0,511.0,513.0,517.0,508.0,501.0,496.0,506.0444444444444,507.77777777777777,517.1333333333333,503.0,503.0,504.0,504.0,504.0,504.0,508.0,508.0,508.0,511.0,511.0,511.0,511.0,509.0,509.0,509.0,509.0,509.0,508.0,508.0,508.0,508.0,513.0,513.0,513.0,513.0,511.0,511.0,511.0,507.0,507.0,507.0,507.0,496.0,496.0,496.0,496.0,496.0,501.0,501.0,517.0,517.0,508.0,508.0,508.0,508.0,496.0,496.0,496.0,497.0,497.0,497.0,497.0,491.0,491.0,491.0,491.0,491.0,496.0,496.0,503.0,496.0,491.0,8.0,18.0,50.0
0,511.0,513.0,508.0,510.0,508.0,487.0,506.35555555555555,507.26666666666665,513.6222222222223,504.0,504.0,508.0,508.0,508.0,511.0,511.0,511.0,511.0,509.0,509.0,509.0,509.0,509.0,508.0,508.0,508.0,508.0,510.0,510.0,513.0,513.0,511.0,511.0,511.0,507.0,507.0,507.0,507.0,496.0,496.0,496.0,496.0,496.0,501.0,501.0,501.0,501.0,508.0,508.0,508.0,508.0,496.0,496.0,496.0,497.0,497.0,497.0,497.0,491.0,491.0,491.0,491.0,491.0,496.0,496.0,496.0,496.0,487.0,487.0,504.0,496.0,487.0,8.0,18.0,54.0
0,511.0,511.0,497.0,509.0,507.0,488.0,506.84444444444443,506.68888888888887,509.22222222222223,508.0,511.0,511.0,511.0,511.0,509.0,509.0,509.0,509.0,509.0,508.0,508.0,508.0,508.0,510.0,510.0,510.0,510.0,509.0,509.0,511.0,507.0,507.0,507.0,507.0,496.0,496.0,496.0,496.0,496.0,501.0,501.0,501.0,501.0,508.0,508.0,508.0,508.0,507.0,507.0,496.0,497.0,497.0,497.0,497.0,491.0,491.0,491.0,491.0,491.0,496.0,496.0,496.0,496.0,487.0,487.0,487.0,487.0,488.0,488.0,508.0,496.0,487.0,8.0,18.0,54.0
0,511.0,508.0,497.0,511.0,500.0,488.0,507.15555555555557,505.9555555555556,504.5777777777778,511.0,509.0,509.0,509.0,509.0,509.0,508.0,508.0,508.0,508.0,510.0,510.0,510.0,510.0,509.0,509.0,509.0,509.0,511.0,511.0,507.0,496.0,496.0,496.0,496.0,496.0,501.0,501.0,501.0,501.0,508.0,508.0,508.0,508.0,507.0,507.0,507.0,507.0,500.0,500.0,497.0,491.0,491.0,491.0,491.0,491.0,496.0,496.0,496.0,496.0,487.0,487.0,487.0,487.0,488.0,488.0,488.0,488.0,488.0,488.0,508.0,496.0,487.0,8.0,17.0,54.0
0,511.0,508.0,496.0,510.0,501.0,487.0,507.68888888888887,505.6,500.1111111111111,509.0,509.0,508.0,508.0,508.0,508.0,510.0,510.0,510.0,510.0,509.0,509.0,509.0,509.0,511.0,511.0,511.0,511.0,510.0,510.0,496.0,496.0,501.0,501.0,501.0,501.0,508.0,508.0,508.0,508.0,507.0,507.0,507.0,507.0,500.0,500.0,500.0,500.0,501.0,501.0,491.0,491.0,496.0,496.0,496.0,496.0,487.0,487.0,487.0,487.0,488.0,488.0,488.0,488.0,488.0,488.0,488.0,488.0,487.0,487.0,508.0,496.0,487.0,8.0,17.0,41.0
0,511.0,508.0,496.0,508.0,497.0,481.0,508.15555555555557,504.5777777777778,495.3777777777778,508.0,510.0,510.0,510.0,510.0,509.0,509.0,509.0,509.0,511.0,511.0,511.0,511.0,510.0,510.0,510.0,508.0,508.0,508.0,508.0,501.0,508.0,508.0,508.0,508.0,507.0,507.0,507.0,507.0,500.0,500.0,500.0,500.0,501.0,501.0,501.0,497.0,497.0,497.0,497.0,496.0,487.0,487.0,487.0,487.0,488.0,488.0,488.0,488.0,488.0,488.0,488.0,488.0,487.0,487.0,487.0,481.0,481.0,481.0,481.0,508.0,497.0,481.0,8.0,17.0,39.0
0,511.0,508.0,493.0,511.0,503.0,493.0,508.6,503.64444444444445,492.5777777777778,510.0,509.0,509.0,509.0,509.0,511.0,511.0,511.0,511.0,510.0,510.0,510.0,508.0,508.0,508.0,508.0,508.0,508.0,511.0,511.0,508.0,507.0,507.0,507.0,507.0,500.0,500.0,500.0,500.0,501.0,501.0,501.0,497.0,497.0,497.0,497.0,497.0,497.0,503.0,503.0,487.0,488.0,488.0,488.0,488.0,488.0,488.0,488.0,488.0,487.0,487.0,487.0,481.0,481.0,481.0,481.0,481.0,481.0,493.0,493.0,508.0,497.0,481.0,8.0,17.0,36.0
0,518.0,503.0,510.0,518.0,493.0,510.0,509.8888888888889,502.0888888888889,491.64444444444445,511.0,511.0,511.0,511.0,510.0,510.0,510.0,508.0,508.0,508.0,508.0,508.0,508.0,511.0,511.0,511.0,511.0,518.0,518.0,518.0,500.0,500.0,500.0,500.0,501.0,501.0,501.0,497.0,497.0,497.0,497.0,497.0,497.0,503.0,503.0,503.0,503.0,493.0,493.0,493.0,488.0,488.0,488.0,488.0,487.0,487.0,487.0,481.0,481.0,481.0,481.0,481.0,481.0,493.0,493.0,493.0,493.0,510.0,510.0,510.0,508.0,493.0,481.0,14.0,20.0,29.0
0,518.0,518.0,516.0,512.0,518.0,516.0,510.6,501.55555555555554,492.8888888888889,510.0,510.0,510.0,508.0,508.0,508.0,508.0,508.0,508.0,511.0,511.0,511.0,511.0,518.0,518.0,518.0,518.0,518.0,512.0,512.0,501.0,501.0,501.0,497.0,497.0,497.0,497.0,497.0,497.0,503.0,503.0,503.0,503.0,493.0,493.0,493.0,493.0,493.0,518.0,518.0,487.0,487.0,487.0,481.0,481.0,481.0,481.0,481.0,481.0,493.0,493.0,493.0,493.0,510.0,510.0,510.0,510.0,510.0,516.0,516.0,508.0,493.0,481.0,10.0,25.0,35.0
0,518.0,518.0,521.0,511.0,517.0,521.0,510.64444444444445,502.26666666666665,494.26666666666665,508.0,508.0,508.0,508.0,508.0,508.0,511.0,511.0,511.0,511.0,518.0,518.0,518.0,518.0,518.0,512.0,512.0,512.0,512.0,511.0,497.0,497.0,497.0,497.0,497.0,497.0,503.0,503.0,503.0,503.0,493.0,493.0,493.0,493.0,493.0,518.0,518.0,518.0,518.0,517.0,481.0,481.0,481.0,481.0,481.0,481.0,493.0,493.0,493.0,493.0,510.0,510.0,510.0,510.0,510.0,516.0,516.0,516.0,516.0,521.0,508.0,493.0,481.0,10.0,25.0,40.0
0,518.0,518.0,539.0,507.0,515.0,539.0,510.68888888888887,504.73333333333335,498.93333333333334,511.0,511.0,511.0,511.0,518.0,518.0,518.0,518.0,518.0,512.0,512.0,512.0,512.0,511.0,511.0,511.0,511.0,511.0,507.0,507.0,503.0,503.0,503.0,503.0,493.0,493.0,493.0,493.0,493.0,518.0,518.0,518.0,518.0,517.0,517.0,517.0,517.0,517.0,515.0,515.0,493.0,493.0,493.0,493.0,510.0,510.0,510.0,510.0,510.0,516.0,516.0,516.0,516.0,521.0,521.0,521.0,521.0,521.0,539.0,539.0,507.0,493.0,493.0,11.0,25.0,58.0
0,518.0,518.0,560.0,498.0,515.0,560.0,510.4,505.97777777777776,503.22222222222223,518.0,518.0,518.0,518.0,518.0,512.0,512.0,512.0,512.0,511.0,511.0,511.0,511.0,511.0,507.0,507.0,507.0,507.0,507.0,498.0,493.0,493.0,493.0,493.0,493.0,518.0,518.0,518.0,518.0,517.0,517.0,517.0,517.0,517.0,515.0,515.0,515.0,515.0,515.0,515.0,510.0,510.0,510.0,510.0,510.0,516.0,516.0,516.0,516.0,521.0,521.0,521.0,521.0,521.0,539.0,539.0,539.0,539.0,539.0,560.0,498.0,493.0,510.0,20.0,25.0,79.0
0,512.0,518.0,562.0,507.0,505.0,562.0,509.4888888888889,506.3333333333333,511.4,512.0,512.0,512.0,512.0,511.0,511.0,511.0,511.0,511.0,507.0,507.0,507.0,507.0,507.0,498.0,498.0,498.0,498.0,507.0,507.0,518.0,518.0,518.0,518.0,517.0,517.0,517.0,517.0,517.0,515.0,515.0,515.0,515.0,515.0,515.0,515.0,515.0,515.0,505.0,505.0,516.0,516.0,516.0,516.0,521.0,521.0,521.0,521.0,521.0,539.0,539.0,539.0,539.0,539.0,560.0,560.0,560.0,560.0,562.0,562.0,498.0,505.0,516.0,20.0,25.0,81.0
0,511.0,517.0,568.0,509.0,500.0,568.0,509.35555555555555,506.0888888888889,518.2444444444444,511.0,511.0,511.0,511.0,511.0,507.0,507.0,507.0,507.0,507.0,498.0,498.0,498.0,498.0,507.0,507.0,507.0,507.0,509.0,509.0,517.0,517.0,517.0,517.0,517.0,515.0,515.0,515.0,515.0,515.0,515.0,515.0,515.0,515.0,505.0,505.0,505.0,505.0,500.0,500.0,521.0,521.0,521.0,521.0,521.0,539.0,539.0,539.0,539.0,539.0,560.0,560.0,560.0,560.0,562.0,562.0,562.0,562.0,568.0,568.0,498.0,500.0,521.0,20.0,25.0,87.0
0,511.0,520.0,568.0,507.0,520.0,562.0,509.1111111111111,506.9555555555556,525.1111111111111,511.0,507.0,507.0,507.0,507.0,507.0,498.0,498.0,498.0,498.0,507.0,507.0,507.0,507.0,509.0,509.0,509.0,509.0,507.0,507.0,517.0,515.0,515.0,515.0,515.0,515.0,515.0,515.0,515.0,515.0,505.0,505.0,505.0,505.0,500.0,500.0,500.0,500.0,520.0,520.0,521.0,539.0,539.0,539.0,539.0,539.0,560.0,560.0,560.0,560.0,562.0,562.0,562.0,562.0,568.0,568.0,568.0,568.0,562.0,562.0,498.0,500.0,521.0,20.0,27.0,87.0
0,509.0,520.0,568.0,506.0,511.0,543.0,508.8888888888889,508.4222222222222,531.2,507.0,507.0,498.0,498.0,498.0,498.0,507.0,507.0,507.0,507.0,509.0,509.0,509.0,509.0,507.0,507.0,507.0,507.0,506.0,506.0,515.0,515.0,515.0,515.0,515.0,515.0,505.0,505.0,505.0,505.0,500.0,500.0,500.0,500.0,520.0,520.0,520.0,520.0,511.0,511.0,539.0,539.0,560.0,560.0,560.0,560.0,562.0,562.0,562.0,562.0,568.0,568.0,568.0,568.0,562.0,562.0,562.0,562.0,543.0,543.0,498.0,500.0,539.0,20.0,27.0,87.0
0,509.0,520.0,568.0,507.0,513.0,527.0,508.75555555555553,509.75555555555553,536.0,498.0,498.0,507.0,507.0,507.0,507.0,509.0,509.0,509.0,509.0,507.0,507.0,507.0,507.0,506.0,506.0,506.0,506.0,507.0,507.0,515.0,515.0,505.0,505.0,505.0,505.0,500.0,500.0,500.0,500.0,520.0,520.0,520.0,520.0,511.0,511.0,511.0,511.0,513.0,513.0,560.0,560.0,562.0,562.0,562.0,562.0,568.0,568.0,568.0,568.0,562.0,562.0,562.0,562.0,543.0,543.0,543.0,543.0,527.0,527.0,498.0,500.0,527.0,20.0,27.0,75.0
0,509.0,520.0,568.0,506.0,513.0,513.0,508.35555555555555,510.64444444444445,538.4,507.0,507.0,509.0,509.0,509.0,509.0,507.0,507.0,507.0,507.0,506.0,506.0,506.0,506.0,507.0,507.0,507.0,507.0,506.0,506.0,505.0,505.0,500.0,500.0,500.0,500.0,520.0,520.0,520.0,520.0,511.0,511.0,511.0,511.0,513.0,513.0,513.0,513.0,513.0,513.0,562.0,562.0,568.0,568.0,568.0,568.0,562.0,562.0,562.0,562.0,543.0,543.0,543.0,543.0,527.0,527.0,527.0,527.0,513.0,513.0,506.0,500.0,513.0,20.0,27.0,58.0
0,509.0,520.0,568.0,504.0,502.0,507.0,506.93333333333334,512.3777777777777,538.4666666666667,509.0,507.0,507.0,507.0,507.0,506.0,506.0,506.0,506.0,507.0,507.0,507.0,507.0,506.0,506.0,506.0,506.0,506.0,504.0,504.0,500.0,520.0,520.0,520.0,520.0,511.0,511.0,511.0,511.0,513.0,513.0,513.0,513.0,513.0,513.0,513.0,513.0,513.0,502.0,502.0,568.0,562.0,562.0,562.0,562.0,543.0,543.0,543.0,543.0,527.0,527.0,527.0,527.0,513.0,513.0,513.0,513.0,513.0,507.0,507.0,504.0,500.0,507.0,14.0,20.0,61.0
0,507.0,520.0,562.0,507.0,508.0,493.0,506.35555555555555,511.22222222222223,537.0444444444445,507.0,506.0,506.0,506.0,506.0,507.0,507.0,507.0,507.0,506.0,506.0,506.0,506.0,506.0,504.0,504.0,504.0,507.0,507.0,507.0,520.0,511.0,511.0,511.0,511.0,513.0,513.0,513.0,513.0,513.0,513.0,513.0,513.0,513.0,502.0,502.0,502.0,508.0,508.0,508.0,562.0,543.0,543.0,543.0,543.0,527.0,527.0,527.0,527.0,513.0,513.0,513.0,513.0,513.0,507.0,507.0,507.0,493.0,493.0,493.0,504.0,502.0,493.0,13.0,20.0,75.0
0,510.0,513.0,527.0,510.0,507.0,479.0,506.0444444444444,510.1777777777778,533.3111111111111,507.0,507.0,507.0,507.0,506.0,506.0,506.0,506.0,506.0,504.0,504.0,504.0,504.0,507.0,507.0,507.0,507.0,507.0,510.0,510.0,513.0,513.0,513.0,513.0,513.0,513.0,513.0,513.0,513.0,502.0,502.0,502.0,502.0,508.0,508.0,508.0,508.0,508.0,507.0,507.0,527.0,527.0,527.0,527.0,513.0,513.0,513.0,513.0,513.0,507.0,507.0,507.0,507.0,493.0,493.0,493.0,493.0,493.0,479.0,479.0,504.0,502.0,479.0,12.0,20.0,89.0
0,510.0,513.0,513.0,505.0,511.0,468.0,506.0888888888889,509.64444444444445,527.4888888888889,506.0,506.0,506.0,506.0,506.0,504.0,504.0,504.0,504.0,507.0,507.0,507.0,507.0,507.0,510.0,510.0,510.0,510.0,505.0,505.0,513.0,513.0,513.0,513.0,513.0,502.0,502.0,502.0,502.0,508.0,508.0,508.0,508.0,508.0,507.0,507.0,507.0,507.0,511.0,511.0,513.0,513.0,513.0,513.0,513.0,507.0,507.0,507.0,507.0,493.0,493.0,493.0,493.0,493.0,479.0,479.0,479.0,479.0,468.0,468.0,504.0,502.0,468.0,12.0,20.0,100.0
0,510.0,511.0,507.0,508.0,506.0,470.0,506.8,508.97777777777776,517.8222222222222,504.0,504.0,504.0,504.0,507.0,507.0,507.0,507.0,507.0,510.0,510.0,510.0,510.0,505.0,505.0,505.0,505.0,505.0,508.0,508.0,502.0,502.0,502.0,502.0,508.0,508.0,508.0,508.0,508.0,507.0,507.0,507.0,507.0,511.0,511.0,511.0,511.0,511.0,506.0,506.0,507.0,507.0,507.0,507.0,493.0,493.0,493.0,493.0,493.0,479.0,479.0,479.0,479.0,468.0,468.0,468.0,468.0,468.0,470.0,470.0,504.0,502.0,468.0,6.0,20.0,100.0
0,511.0,511.0,507.0,511.0,508.0,483.0,507.0,509.1333333333333,512.2666666666667,504.0,507.0,507.0,507.0,507.0,507.0,510.0,510.0,510.0,510.0,505.0,505.0,505.0,505.0,505.0,508.0,508.0,508.0,511.0,511.0,502.0,508.0,508.0,508.0,508.0,508.0,507.0,507.0,507.0,507.0,511.0,511.0,511.0,511.0,511.0,506.0,506.0,506.0,508.0,508.0,507.0,493.0,493.0,493.0,493.0,493.0,479.0,479.0,479.0,479.0,468.0,468.0,468.0,468.0,468.0,470.0,470.0,470.0,483.0,483.0,504.0,502.0,468.0,7.0,20.0,100.0
0,511.0,511.0,493.0,511.0,499.0,475.0,507.1777777777778,509.15555555555557,506.3777777777778,507.0,507.0,507.0,510.0,510.0,510.0,510.0,505.0,505.0,505.0,505.0,505.0,508.0,508.0,508.0,511.0,511.0,511.0,511.0,511.0,508.0,508.0,508.0,507.0,507.0,507.0,507.0,511.0,511.0,511.0,511.0,511.0,506.0,506.0,506.0,508.0,508.0,508.0,499.0,499.0,493.0,493.0,493.0,479.0,479.0,479.0,479.0,468.0,468.0,468.0,468.0,468.0,470.0,470.0,470.0,483.0,483.0,483.0,475.0,475.0,505.0,499.0,468.0,7.0,21.0,100.0
0,512.0,511.0,484.0,512.0,501.0,484.0,507.4888888888889,508.26666666666665,498.77777777777777,510.0,510.0,510.0,505.0,505.0,505.0,505.0,505.0,508.0,508.0,508.0,511.0,511.0,511.0,511.0,511.0,511.0,511.0,512.0,512.0,507.0,507.0,507.0,511.0,511.0,511.0,511.0,511.0,506.0,506.0,506.0,508.0,508.0,508.0,499.0,499.0,499.0,499.0,501.0,501.0,479.0,479.0,479.0,468.0,468.0,468.0,468.0,468.0,470.0,470.0,470.0,483.0,483.0,483.0,475.0,475.0,475.0,475.0,484.0,484.0,505.0,499.0,468.0,8.0,21.0,94.0
0,513.0,511.0,489.0,513.0,498.0,489.0,507.8888888888889,507.06666666666666,494.22222222222223,505.0,505.0,505.0,505.0,505.0,508.0,508.0,508.0,511.0,511.0,511.0,511.0,511.0,511.0,511.0,512.0,512.0,512.0,513.0,513.0,511.0,511.0,511.0,511.0,511.0,506.0,506.0,506.0,508.0,508.0,508.0,499.0,499.0,499.0,499.0,501.0,501.0,501.0,498.0,498.0,468.0,468.0,468.0,468.0,468.0,470.0,470.0,470.0,483.0,483.0,483.0,475.0,475.0,475.0,475.0,484.0,484.0,484.0,489.0,489.0,505.0,498.0,468.0,9.0,15.0,75.0
0,513.0,511.0,489.0,507.0,502.0,489.0,508.22222222222223,506.0444444444444,489.77777777777777,505.0,508.0,508.0,508.0,511.0,511.0,511.0,511.0,511.0,511.0,511.0,512.0,512.0,512.0,513.0,513.0,513.0,513.0,507.0,507.0,511.0,506.0,506.0,506.0,508.0,508.0,508.0,499.0,499.0,499.0,499.0,501.0,501.0,501.0,498.0,498.0,498.0,498.0,502.0,502.0,468.0,470.0,470.0,470.0,483.0,483.0,483.0,475.0,475.0,475.0,475.0,484.0,484.0,484.0,489.0,489.0,489.0,489.0,489.0,489.0,505.0,498.0,468.0,9.0,15.0,59.0
0,513.0,512.0,494.0,512.0,512.0,494.0,508.6,505.4888888888889,486.5111111111111,511.0,511.0,511.0,511.0,511.0,511.0,512.0,512.0,512.0,513.0,513.0,513.0,513.0,507.0,507.0,507.0,507.0,512.0,512.0,512.0,508.0,508.0,499.0,499.0,499.0,499.0,501.0,501.0,501.0,498.0,498.0,498.0,498.0,502.0,502.0,502.0,502.0,512.0,512.0,512.0,483.0,483.0,475.0,475.0,475.0,475.0,484.0,484.0,484.0,489.0,489.0,489.0,489.0,489.0,489.0,489.0,489.0,494.0,494.0,494.0,507.0,498.0,475.0,9.0,15.0,45.0
0,513.0,512.0,510.0,511.0,505.0,510.0,509.1333333333333,505.3333333333333,485.6666666666667,511.0,511.0,512.0,512.0,512.0,513.0,513.0,513.0,513.0,507.0,507.0,507.0,507.0,512.0,512.0,512.0,512.0,512.0,511.0,511.0,499.0,499.0,501.0,501.0,501.0,498.0,498.0,498.0,498.0,502.0,502.0,502.0,502.0,512.0,512.0,512.0,512.0,512.0,505.0,505.0,475.0,475.0,484.0,484.0,484.0,489.0,489.0,489.0,489.0,489.0,489.0,489.0,489.0,494.0,494.0,494.0,494.0,494.0,510.0,510.0,507.0,498.0,475.0,9.0,14.0,42.0
0,513.0,512.0,514.0,511.0,507.0,514.0,509.68888888888887,505.55555555555554,486.4222222222222,512.0,513.0,513.0,513.0,513.0,507.0,507.0,507.0,507.0,512.0,512.0,512.0,512.0,512.0,511.0,511.0,511.0,511.0,511.0,511.0,501.0,498.0,498.0,498.0,498.0,502.0,502.0,502.0,502.0,512.0,512.0,512.0,512.0,512.0,505.0,505.0,505.0,505.0,507.0,507.0,484.0,489.0,489.0,489.0,489.0,489.0,489.0,489.0,489.0,494.0,494.0,494.0,494.0,494.0,510.0,510.0,510.0,510.0,514.0,514.0,507.0,498.0,484.0,8.0,14.0,46.0
0,513.0,512.0,519.0,513.0,511.0,519.0,510.1333333333333,505.64444444444445,488.5111111111111,513.0,507.0,507.0,507.0,507.0,512.0,512.0,512.0,512.0,512.0,511.0,511.0,511.0,511.0,511.0,511.0,511.0,511.0,513.0,513.0,498.0,502.0,502.0,502.0,502.0,512.0,512.0,512.0,512.0,512.0,505.0,505.0,505.0,505.0,507.0,507.0,507.0,507.0,511.0,511.0,489.0,489.0,489.0,489.0,489.0,494.0,494.0,494.0,494.0,494.0,510.0,510.0,510.0,510.0,514.0,514.0,514.0,514.0,519.0,519.0,507.0,498.0,489.0,8.0,14.0,51.0
0,513.0,522.0,522.0,502.0,522.0,522.0,509.9111111111111,506.4888888888889,492.2,507.0,512.0,512.0,512.0,512.0,512.0,511.0,511.0,511.0,511.0,511.0,511.0,511.0,511.0,513.0,513.0,513.0,513.0,502.0,502.0,502.0,512.0,512.0,512.0,512.0,512.0,505.0,505.0,505.0,505.0,507.0,507.0,507.0,507.0,511.0,511.0,511.0,511.0,522.0,522.0,489.0,494.0,494.0,494.0,494.0,494.0,510.0,510.0,510.0,510.0,514.0,514.0,514.0,514.0,519.0,519.0,519.0,519.0,522.0,522.0,502.0,502.0,489.0,11.0,24.0,54.0
0,513.0,528.0,534.0,501.0,528.0,534.0,509.6666666666667,507.4888888888889,496.3333333333333,512.0,512.0,512.0,511.0,511.0,511.0,511.0,511.0,511.0,511.0,511.0,513.0,513.0,513.0,513.0,502.0,502.0,502.0,501.0,501.0,512.0,512.0,512.0,505.0,505.0,505.0,505.0,507.0,507.0,507.0,507.0,511.0,511.0,511.0,511.0,522.0,522.0,522.0,528.0,528.0,494.0,494.0,494.0,510.0,510.0,510.0,510.0,514.0,514.0,514.0,514.0,519.0,519.0,519.0,519.0,522.0,522.0,522.0,534.0,534.0,501.0,505.0,494.0,12.0,30.0,66.0
0,513.0,528.0,545.0,500.0,513.0,545.0,509.2888888888889,508.06666666666666,501.1777777777778,511.0,511.0,511.0,511.0,511.0,511.0,511.0,511.0,513.0,513.0,513.0,513.0,502.0,502.0,502.0,501.0,501.0,501.0,500.0,500.0,505.0,505.0,505.0,505.0,507.0,507.0,507.0,507.0,511.0,511.0,511.0,511.0,522.0,522.0,522.0,528.0,528.0,528.0,513.0,513.0,510.0,510.0,510.0,510.0,514.0,514.0,514.0,514.0,519.0,519.0,519.0,519.0,522.0,522.0,522.0,534.0,534.0,534.0,545.0,545.0,500.0,505.0,510.0,13.0,30.0,75.0
0,513.0,528.0,551.0,508.0,506.0,551.0,508.8,508.2888888888889,507.53333333333336,511.0,511.0,511.0,511.0,513.0,513.0,513.0,513.0,502.0,502.0,502.0,501.0,501.0,501.0,500.0,500.0,500.0,500.0,508.0,508.0,507.0,507.0,507.0,507.0,511.0,511.0,511.0,511.0,522.0,522.0,522.0,528.0,528.0,528.0,513.0,513.0,513.0,513.0,506.0,506.0,514.0,514.0,514.0,514.0,519.0,519.0,519.0,519.0,522.0,522.0,522.0,534.0,534.0,534.0,545.0,545.0,545.0,545.0,551.0,551.0,500.0,506.0,514.0,13.0,30.0,76.0
0,513.0,528.0,551.0,508.0,502.0,545.0,508.6,508.3777777777778,512.1555555555556,511.0,513.0,513.0,513.0,513.0,502.0,502.0,502.0,501.0,501.0,501.0,500.0,500.0,500.0,500.0,508.0,508.0,508.0,508.0,508.0,507.0,511.0,511.0,511.0,511.0,522.0,522.0,522.0,528.0,528.0,528.0,513.0,513.0,513.0,513.0,506.0,506.0,506.0,502.0,502.0,514.0,519.0,519.0,519.0,519.0,522.0,522.0,522.0,534.0,534.0,534.0,545.0,545.0,545.0,545.0,551.0,551.0,551.0,545.0,545.0,500.0,502.0,514.0,13.0,30.0,76.0
0,513.0,528.0,551.0,512.0,506.0,535.0,508.3777777777778,508.64444444444445,517.7555555555556,513.0,502.0,502.0,502.0,501.0,501.0,500.0,500.0,500.0,500.0,508.0,508.0,508.0,508.0,508.0,508.0,508.0,508.0,512.0,512.0,511.0,522.0,522.0,522.0,528.0,528.0,513.0,513.0,513.0,513.0,506.0,506.0,506.0,502.0,502.0,502.0,502.0,502.0,506.0,506.0,519.0,522.0,522.0,522.0,534.0,534.0,545.0,545.0,545.0,545.0,551.0,551.0,551.0,545.0,545.0,545.0,545.0,545.0,535.0,535.0,500.0,502.0,519.0,13.0,30.0,67.0
0,512.0,528.0,551.0,512.0,511.0,527.0,508.3333333333333,509.22222222222223,520.7555555555556,502.0,501.0,501.0,501.0,500.0,500.0,500.0,500.0,508.0,508.0,508.0,508.0,508.0,508.0,508.0,508.0,512.0,512.0,512.0,512.0,522.0,528.0,528.0,528.0,513.0,513.0,513.0,513.0,506.0,506.0,506.0,502.0,502.0,502.0,502.0,502.0,506.0,506.0,506.0,511.0,522.0,534.0,534.0,534.0,545.0,545.0,545.0,545.0,551.0,551.0,551.0,545.0,545.0,545.0,545.0,545.0,535.0,535.0,535.0,527.0,500.0,502.0,522.0,13.0,30.0,62.0
0,512.0,528.0,551.0,510.0,504.0,524.0,508.35555555555555,509.84444444444443,523.2222222222222,501.0,500.0,500.0,500.0,500.0,508.0,508.0,508.0,508.0,508.0,508.0,508.0,508.0,512.0,512.0,512.0,512.0,512.0,512.0,510.0,528.0,513.0,513.0,513.0,513.0,506.0,506.0,506.0,502.0,502.0,502.0,502.0,502.0,506.0,506.0,506.0,511.0,511.0,511.0,504.0,534.0,545.0,545.0,545.0,545.0,551.0,551.0,551.0,545.0,545.0,545.0,545.0,545.0,535.0,535.0,535.0,527.0,527.0,527.0,524.0,500.0,502.0,524.0,13.0,26.0,62.0
0,512.0,513.0,551.0,508.0,505.0,515.0,508.4222222222222,509.84444444444443,525.8222222222222,500.0,508.0,508.0,508.0,508.0,508.0,508.0,508.0,508.0,512.0,512.0,512.0,512.0,512.0,512.0,510.0,510.0,510.0,508.0,508.0,513.0,506.0,506.0,506.0,502.0,502.0,502.0,502.0,502.0,506.0,506.0,506.0,511.0,511.0,511.0,504.0,504.0,504.0,505.0,505.0,545.0,551.0,551.0,551.0,545.0,545.0,545.0,545.0,545.0,535.0,535.0,535.0,527.0,527.0,527.0,524.0,524.0,524.0,515.0,515.0,500.0,502.0,515.0,13.0,26.0,57.0
0,512.0,511.0,551.0,507.0,504.0,500.0,508.1333333333333,509.35555555555555,526.8888888888889,508.0,508.0,508.0,508.0,508.0,508.0,512.0,512.0,512.0,512.0,512.0,512.0,510.0,510.0,510.0,508.0,508.0,508.0,507.0,507.0,506.0,502.0,502.0,502.0,502.0,502.0,506.0,506.0,506.0,511.0,511.0,511.0,504.0,504.0,504.0,505.0,505.0,505.0,504.0,504.0,551.0,545.0,545.0,545.0,545.0,545.0,535.0,535.0,535.0,527.0,527.0,527.0,524.0,524.0,524.0,515.0,515.0,515.0,500.0,500.0,507.0,502.0,500.0,13.0,26.0,57.0
0,512.0,511.0,545.0,507.0,503.0,501.0,507.6666666666667,509.0444444444444,526.1777777777778,508.0,512.0,512.0,512.0,512.0,512.0,512.0,510.0,510.0,510.0,508.0,508.0,508.0,508.0,507.0,507.0,507.0,507.0,507.0,507.0,502.0,506.0,506.0,506.0,511.0,511.0,511.0,504.0,504.0,504.0,505.0,505.0,505.0,505.0,504.0,504.0,504.0,504.0,503.0,503.0,545.0,535.0,535.0,535.0,527.0,527.0,527.0,524.0,524.0,524.0,515.0,515.0,515.0,515.0,500.0,500.0,500.0,500.0,501.0,501.0,507.0,502.0,500.0,13.0,26.0,51.0
0,512.0,511.0,535.0,506.0,509.0,506.0,507.3777777777778,508.9111111111111,525.4222222222222,512.0,512.0,512.0,512.0,510.0,510.0,510.0,508.0,508.0,508.0,508.0,507.0,507.0,507.0,507.0,507.0,507.0,507.0,507.0,506.0,506.0,511.0,511.0,511.0,504.0,504.0,504.0,505.0,505.0,505.0,505.0,504.0,504.0,504.0,504.0,503.0,503.0,503.0,503.0,509.0,535.0,527.0,527.0,527.0,524.0,524.0,524.0,515.0,515.0,515.0,515.0,500.0,500.0,500.0,500.0,501.0,501.0,501.0,501.0,506.0,506.0,503.0,500.0,13.0,26.0,51.0
0,511.0,509.0,524.0,511.0,501.0,490.0,506.8666666666667,508.4222222222222,523.3777777777777,510.0,510.0,508.0,508.0,508.0,508.0,507.0,507.0,507.0,507.0,507.0,507.0,507.0,507.0,506.0,506.0,506.0,506.0,511.0,511.0,504.0,504.0,505.0,505.0,505.0,505.0,504.0,504.0,504.0,504.0,503.0,503.0,503.0,503.0,509.0,509.0,509.0,509.0,501.0,501.0,524.0,524.0,515.0,515.0,515.0,515.0,500.0,500.0,500.0,500.0,501.0,501.0,501.0,501.0,506.0,506.0,506.0,506.0,490.0,490.0,506.0,501.0,490.0,12.0,27.0,61.0
0,511.0,509.0,515.0,507.0,501.0,488.0,507.2888888888889,507.02222222222224,521.1555555555556,508.0,508.0,508.0,507.0,507.0,507.0,507.0,507.0,507.0,507.0,507.0,506.0,506.0,506.0,506.0,511.0,511.0,511.0,507.0,507.0,505.0,505.0,505.0,504.0,504.0,504.0,504.0,503.0,503.0,503.0,503.0,509.0,509.0,509.0,509.0,501.0,501.0,501.0,501.0,501.0,515.0,515.0,515.0,500.0,500.0,500.0,500.0,501.0,501.0,501.0,501.0,506.0,506.0,506.0,506.0,490.0,490.0,490.0,488.0,488.0,506.0,501.0,488.0,12.0,27.0,63.0
0,511.0,509.0,506.0,510.0,497.0,485.0,507.8222222222222,505.0444444444444,517.9555555555555,507.0,507.0,507.0,507.0,507.0,507.0,507.0,507.0,506.0,506.0,506.0,506.0,511.0,511.0,511.0,507.0,507.0,507.0,510.0,510.0,504.0,504.0,504.0,504.0,503.0,503.0,503.0,503.0,509.0,509.0,509.0,509.0,501.0,501.0,501.0,501.0,501.0,501.0,497.0,497.0,500.0,500.0,500.0,500.0,501.0,501.0,501.0,501.0,506.0,506.0,506.0,506.0,490.0,490.0,490.0,488.0,488.0,488.0,485.0,485.0,506.0,497.0,485.0,12.0,16.0,66.0
0,512.0,509.0,506.0,512.0,500.0,489.0,508.8,503.75555555555553,512.8,507.0,507.0,507.0,507.0,506.0,506.0,506.0,506.0,511.0,511.0,511.0,507.0,507.0,507.0,510.0,510.0,510.0,510.0,512.0,512.0,503.0,503.0,503.0,503.0,509.0,509.0,509.0,509.0,501.0,501.0,501.0,501.0,501.0,501.0,497.0,497.0,497.0,497.0,500.0,500.0,501.0,501.0,501.0,501.0,506.0,506.0,506.0,506.0,490.0,490.0,490.0,488.0,488.0,488.0,485.0,485.0,485.0,485.0,489.0,489.0,506.0,497.0,485.0,6.0,14.0,66.0
0,512.0,509.0,506.0,512.0,498.0,492.0,509.15555555555557,503.22222222222223,507.55555555555554,506.0,506.0,506.0,506.0,511.0,511.0,511.0,507.0,507.0,507.0,510.0,510.0,510.0,510.0,512.0,512.0,512.0,512.0,512.0,512.0,509.0,509.0,509.0,509.0,501.0,501.0,501.0,501.0,501.0,501.0,497.0,497.0,497.0,497.0,500.0,500.0,500.0,500.0,498.0,498.0,506.0,506.0,506.0,506.0,490.0,490.0,490.0,488.0,488.0,488.0,485.0,485.0,485.0,485.0,489.0,489.0,489.0,489.0,492.0,492.0,506.0,497.0,485.0,6.0,14.0,60.0
0,513.0,501.0,492.0,513.0,496.0,488.0,509.55555555555554,502.77777777777777,502.6666666666667,511.0,511.0,511.0,507.0,507.0,507.0,510.0,510.0,510.0,510.0,512.0,512.0,512.0,512.0,512.0,512.0,512.0,512.0,513.0,513.0,501.0,501.0,501.0,501.0,501.0,501.0,497.0,497.0,497.0,497.0,500.0,500.0,500.0,500.0,498.0,498.0,498.0,498.0,496.0,496.0,490.0,490.0,490.0,488.0,488.0,488.0,485.0,485.0,485.0,485.0,489.0,489.0,489.0,489.0,492.0,492.0,492.0,492.0,488.0,488.0,507.0,496.0,485.0,7.0,15.0,50.0
0,513.0,501.0,493.0,513.0,496.0,493.0,509.6222222222222,502.1111111111111,499.75555555555553,507.0,507.0,507.0,510.0,510.0,510.0,510.0,512.0,512.0,512.0,512.0,512.0,512.0,512.0,512.0,513.0,513.0,513.0,513.0,513.0,501.0,501.0,501.0,497.0,497.0,497.0,497.0,500.0,500.0,500.0,500.0,498.0,498.0,498.0,498.0,496.0,496.0,496.0,496.0,496.0,488.0,488.0,488.0,485.0,485.0,485.0,485.0,489.0,489.0,489.0,489.0,492.0,492.0,492.0,492.0,488.0,488.0,488.0,493.0,493.0,507.0,496.0,485.0,7.0,15.0,42.0
0,513.0,512.0,503.0,510.0,512.0,503.0,509.68888888888887,501.46666666666664,496.55555555555554,510.0,510.0,512.0,512.0,512.0,512.0,512.0,512.0,512.0,512.0,513.0,513.0,513.0,513.0,513.0,513.0,513.0,513.0,510.0,510.0,497.0,497.0,500.0,500.0,500.0,500.0,498.0,498.0,498.0,498.0,496.0,496.0,496.0,496.0,496.0,496.0,496.0,496.0,512.0,512.0,485.0,485.0,489.0,489.0,489.0,489.0,492.0,492.0,492.0,492.0,488.0,488.0,488.0,493.0,493.0,493.0,493.0,493.0,503.0,503.0,510.0,496.0,485.0,7.0,16.0,39.0
0,513.0,512.0,514.0,508.0,504.0,514.0,509.73333333333335,501.75555555555553,495.77777777777777,512.0,512.0,512.0,512.0,512.0,512.0,513.0,513.0,513.0,513.0,513.0,513.0,513.0,513.0,510.0,510.0,510.0,510.0,508.0,508.0,500.0,500.0,498.0,498.0,498.0,498.0,496.0,496.0,496.0,496.0,496.0,496.0,496.0,496.0,512.0,512.0,512.0,512.0,504.0,504.0,489.0,489.0,492.0,492.0,492.0,492.0,488.0,488.0,488.0,493.0,493.0,493.0,493.0,493.0,503.0,503.0,503.0,503.0,514.0,514.0,508.0,496.0,488.0,7.0,16.0,30.0
0,513.0,514.0,531.0,510.0,514.0,531.0,509.8888888888889,502.1777777777778,497.44444444444446,512.0,512.0,513.0,513.0,513.0,513.0,513.0,513.0,513.0,513.0,510.0,510.0,510.0,510.0,508.0,508.0,508.0,508.0,510.0,510.0,498.0,498.0,496.0,496.0,496.0,496.0,496.0,496.0,496.0,496.0,512.0,512.0,512.0,512.0,504.0,504.0,504.0,504.0,514.0,514.0,492.0,492.0,488.0,488.0,488.0,493.0,493.0,493.0,493.0,493.0,503.0,503.0,503.0,503.0,514.0,514.0,514.0,514.0,531.0,531.0,508.0,496.0,488.0,7.0,18.0,46.0
0,513.0,514.0,545.0,508.0,507.0,545.0,510.06666666666666,502.8222222222222,500.75555555555553,513.0,513.0,513.0,513.0,513.0,513.0,510.0,510.0,510.0,510.0,508.0,508.0,508.0,508.0,510.0,510.0,510.0,510.0,508.0,508.0,496.0,496.0,496.0,496.0,496.0,496.0,512.0,512.0,512.0,512.0,504.0,504.0,504.0,504.0,514.0,514.0,514.0,514.0,507.0,507.0,488.0,493.0,493.0,493.0,493.0,493.0,503.0,503.0,503.0,503.0,514.0,514.0,514.0,514.0,531.0,531.0,531.0,531.0,545.0,545.0,508.0,496.0,488.0,7.0,18.0,60.0
0,513.0,515.0,545.0,511.0,515.0,541.0,510.35555555555555,503.1333333333333,504.15555555555557,513.0,513.0,510.0,510.0,510.0,510.0,508.0,508.0,508.0,508.0,510.0,510.0,510.0,510.0,508.0,508.0,508.0,508.0,511.0,511.0,496.0,496.0,512.0,512.0,512.0,512.0,504.0,504.0,504.0,504.0,514.0,514.0,514.0,514.0,507.0,507.0,507.0,507.0,515.0,515.0,493.0,493.0,503.0,503.0,503.0,503.0,514.0,514.0,514.0,514.0,531.0,531.0,531.0,531.0,545.0,545.0,545.0,545.0,541.0,541.0,508.0,496.0,493.0,7.0,19.0,60.0
0,511.0,515.0,546.0,506.0,511.0,546.0,510.24444444444447,504.02222222222224,508.55555555555554,510.0,510.0,508.0,508.0,508.0,508.0,510.0,510.0,510.0,510.0,508.0,508.0,508.0,508.0,511.0,511.0,511.0,511.0,506.0,506.0,512.0,512.0,504.0,504.0,504.0,504.0,514.0,514.0,514.0,514.0,507.0,507.0,507.0,507.0,515.0,515.0,515.0,515.0,511.0,511.0,503.0,503.0,514.0,514.0,514.0,514.0,531.0,531.0,531.0,531.0,545.0,545.0,545.0,545.0,541.0,541.0,541.0,541.0,546.0,546.0,506.0,504.0,503.0,7.0,19.0,61.0
0,511.0,515.0,557.0,510.0,506.0,557.0,510.26666666666665,504.77777777777777,514.2666666666667,508.0,508.0,510.0,510.0,510.0,510.0,508.0,508.0,508.0,508.0,511.0,511.0,511.0,511.0,506.0,506.0,506.0,506.0,510.0,510.0,504.0,504.0,514.0,514.0,514.0,514.0,507.0,507.0,507.0,507.0,515.0,515.0,515.0,515.0,511.0,511.0,511.0,511.0,506.0,506.0,514.0,514.0,531.0,531.0,531.0,531.0,545.0,545.0,545.0,545.0,541.0,541.0,541.0,541.0,546.0,546.0,546.0,546.0,557.0,557.0,506.0,504.0,514.0,7.0,19.0,72.0
0,511.0,515.0,557.0,505.0,506.0,542.0,510.0,505.5111111111111,519.9111111111112,510.0,510.0,508.0,508.0,508.0,508.0,511.0,511.0,511.0,511.0,506.0,506.0,506.0,506.0,510.0,510.0,510.0,510.0,505.0,505.0,514.0,514.0,507.0,507.0,507.0,507.0,515.0,515.0,515.0,515.0,511.0,511.0,511.0,511.0,506.0,506.0,506.0,506.0,506.0,506.0,531.0,531.0,545.0,545.0,545.0,545.0,541.0,541.0,541.0,541.0,546.0,546.0,546.0,546.0,557.0,557.0,557.0,557.0,542.0,542.0,505.0,506.0,531.0,8.0,19.0,69.0
0,511.0,515.0,557.0,511.0,498.0,545.0,509.6222222222222,505.73333333333335,525.8666666666667,508.0,511.0,511.0,511.0,511.0,506.0,506.0,506.0,506.0,510.0,510.0,510.0,510.0,505.0,505.0,505.0,505.0,511.0,511.0,511.0,507.0,515.0,515.0,515.0,515.0,511.0,511.0,511.0,511.0,506.0,506.0,506.0,506.0,506.0,506.0,506.0,506.0,498.0,498.0,498.0,545.0,541.0,541.0,541.0,541.0,546.0,546.0,546.0,546.0,557.0,557.0,557.0,557.0,542.0,542.0,542.0,542.0,545.0,545.0,545.0,505.0,498.0,541.0,8.0,19.0,69.0
0,511.0,515.0,557.0,499.0,506.0,524.0,509.0,506.1333333333333,528.5555555555555,511.0,511.0,506.0,506.0,506.0,506.0,510.0,510.0,510.0,510.0,505.0,505.0,505.0,505.0,511.0,511.0,511.0,511.0,499.0,499.0,515.0,515.0,511.0,511.0,511.0,511.0,506.0,506.0,506.0,506.0,506.0,506.0,506.0,506.0,498.0,498.0,498.0,498.0,506.0,506.0,541.0,541.0,546.0,546.0,546.0,546.0,557.0,557.0,557.0,557.0,542.0,542.0,542.0,542.0,545.0,545.0,545.0,545.0,524.0,524.0,499.0,498.0,524.0,14.0,19.0,69.0
0,511.0,511.0,557.0,510.0,505.0,516.0,508.24444444444447,506.97777777777776,531.1777777777778,506.0,506.0,510.0,510.0,510.0,510.0,505.0,505.0,505.0,505.0,511.0,511.0,511.0,511.0,499.0,499.0,499.0,499.0,510.0,510.0,511.0,511.0,506.0,506.0,506.0,506.0,506.0,506.0,506.0,506.0,498.0,498.0,498.0,498.0,506.0,506.0,506.0,506.0,505.0,505.0,546.0,546.0,557.0,557.0,557.0,557.0,542.0,542.0,542.0,542.0,545.0,545.0,545.0,545.0,524.0,524.0,524.0,524.0,516.0,516.0,499.0,498.0,516.0,14.0,19.0,64.0
0,511.0,513.0,557.0,504.0,513.0,507.0,507.77777777777777,507.77777777777777,532.6,510.0,510.0,505.0,505.0,505.0,505.0,511.0,511.0,511.0,511.0,499.0,499.0,499.0,499.0,510.0,510.0,510.0,510.0,504.0,504.0,506.0,506.0,506.0,506.0,506.0,506.0,498.0,498.0,498.0,498.0,506.0,506.0,506.0,506.0,505.0,505.0,505.0,505.0,513.0,513.0,557.0,557.0,542.0,542.0,542.0,542.0,545.0,545.0,545.0,545.0,524.0,524.0,524.0,524.0,516.0,516.0,516.0,516.0,507.0,507.0,499.0,498.0,507.0,12.0,17.0,54.0
0,511.0,513.0,545.0,511.0,510.0,493.0,507.75555555555553,507.84444444444443,531.7777777777778,505.0,505.0,511.0,511.0,511.0,511.0,499.0,499.0,499.0,499.0,510.0,510.0,510.0,510.0,504.0,504.0,504.0,511.0,511.0,511.0,506.0,506.0,498.0,498.0,498.0,498.0,506.0,506.0,506.0,506.0,505.0,505.0,505.0,505.0,513.0,513.0,513.0,510.0,510.0,510.0,542.0,542.0,545.0,545.0,545.0,545.0,524.0,524.0,524.0,524.0,516.0,516.0,516.0,516.0,507.0,507.0,507.0,493.0,493.0,493.0,499.0,498.0,493.0,12.0,17.0,64.0
0,511.0,513.0,545.0,509.0,507.0,493.0,507.9111111111111,508.1777777777778,530.3777777777777,511.0,511.0,511.0,499.0,499.0,499.0,499.0,510.0,510.0,510.0,510.0,504.0,504.0,504.0,511.0,511.0,511.0,511.0,509.0,509.0,498.0,498.0,498.0,506.0,506.0,506.0,506.0,505.0,505.0,505.0,505.0,513.0,513.0,513.0,510.0,510.0,510.0,510.0,507.0,507.0,545.0,545.0,545.0,524.0,524.0,524.0,524.0,516.0,516.0,516.0,516.0,507.0,507.0,507.0,493.0,493.0,493.0,493.0,493.0,493.0,499.0,498.0,493.0,12.0,17.0,64.0
0,511.0,513.0,524.0,504.0,504.0,489.0,507.6222222222222,507.4222222222222,525.6666666666666,499.0,499.0,510.0,510.0,510.0,510.0,504.0,504.0,504.0,511.0,511.0,511.0,511.0,511.0,509.0,509.0,509.0,509.0,504.0,504.0,506.0,506.0,505.0,505.0,505.0,505.0,513.0,513.0,513.0,510.0,510.0,510.0,510.0,510.0,507.0,507.0,507.0,507.0,504.0,504.0,524.0,524.0,516.0,516.0,516.0,516.0,507.0,507.0,507.0,493.0,493.0,493.0,493.0,493.0,493.0,493.0,493.0,493.0,489.0,489.0,499.0,504.0,489.0,12.0,17.0,68.0
0,511.0,513.0,516.0,511.0,496.0,485.0,507.5111111111111,506.6222222222222,520.6,510.0,510.0,504.0,504.0,504.0,511.0,511.0,511.0,511.0,511.0,509.0,509.0,509.0,509.0,504.0,504.0,504.0,504.0,511.0,511.0,505.0,505.0,513.0,513.0,513.0,510.0,510.0,510.0,510.0,510.0,507.0,507.0,507.0,507.0,504.0,504.0,504.0,504.0,496.0,496.0,516.0,516.0,507.0,507.0,507.0,493.0,493.0,493.0,493.0,493.0,493.0,493.0,493.0,493.0,489.0,489.0,489.0,489.0,485.0,485.0,504.0,496.0,485.0,12.0,19.0,72.0
0,511.0,510.0,493.0,506.0,504.0,487.0,507.5111111111111,505.0444444444444,514.2444444444444,511.0,511.0,511.0,511.0,511.0,509.0,509.0,509.0,509.0,504.0,504.0,504.0,504.0,511.0,511.0,511.0,511.0,511.0,506.0,506.0,510.0,510.0,510.0,510.0,510.0,507.0,507.0,507.0,507.0,504.0,504.0,504.0,504.0,496.0,496.0,496.0,496.0,496.0,504.0,504.0,493.0,493.0,493.0,493.0,493.0,493.0,493.0,493.0,493.0,489.0,489.0,489.0,489.0,485.0,485.0,485.0,485.0,485.0,487.0,487.0,504.0,496.0,485.0,12.0,17.0,72.0
0,511.0,510.0,493.0,510.0,500.0,470.0,507.5111111111111,504.46666666666664,507.75555555555553,511.0,509.0,509.0,509.0,509.0,504.0,504.0,504.0,504.0,511.0,511.0,511.0,511.0,511.0,506.0,506.0,506.0,506.0,510.0,510.0,510.0,507.0,507.0,507.0,507.0,504.0,504.0,504.0,504.0,496.0,496.0,496.0,496.0,496.0,504.0,504.0,504.0,504.0,500.0,500.0,493.0,493.0,493.0,493.0,493.0,489.0,489.0,489.0,489.0,485.0,485.0,485.0,485.0,485.0,487.0,487.0,487.0,487.0,470.0,470.0,504.0,496.0,470.0,12.0,17.0,87.0
0,511.0,507.0,493.0,509.0,500.0,463.0,507.68888888888887,503.93333333333334,500.3777777777778,509.0,504.0,504.0,504.0,504.0,511.0,511.0,511.0,511.0,511.0,506.0,506.0,506.0,506.0,510.0,510.0,510.0,510.0,509.0,509.0,507.0,504.0,504.0,504.0,504.0,496.0,496.0,496.0,496.0,496.0,504.0,504.0,504.0,504.0,500.0,500.0,500.0,500.0,500.0,500.0,493.0,489.0,489.0,489.0,489.0,485.0,485.0,485.0,485.0,485.0,487.0,487.0,487.0,487.0,470.0,470.0,470.0,470.0,463.0,463.0,504.0,496.0,463.0,12.0,17.0,82.0
0,511.0,504.0,489.0,511.0,500.0,478.0,507.8666666666667,503.7111111111111,495.3777777777778,504.0,504.0,511.0,511.0,511.0,511.0,511.0,506.0,506.0,506.0,506.0,510.0,510.0,510.0,510.0,509.0,509.0,509.0,509.0,511.0,504.0,504.0,496.0,496.0,496.0,496.0,496.0,504.0,504.0,504.0,504.0,500.0,500.0,500.0,500.0,500.0,500.0,500.0,500.0,500.0,489.0,489.0,485.0,485.0,485.0,485.0,485.0,487.0,487.0,487.0,487.0,470.0,470.0,470.0,470.0,463.0,463.0,463.0,463.0,478.0,504.0,496.0,463.0,12.0,17.0,82.0
0,511.0,504.0,487.0,510.0,502.0,482.0,508.6,503.5777777777778,488.1111111111111,511.0,506.0,506.0,506.0,506.0,510.0,510.0,510.0,510.0,509.0,509.0,509.0,509.0,511.0,511.0,511.0,511.0,510.0,510.0,510.0,496.0,504.0,504.0,504.0,504.0,500.0,500.0,500.0,500.0,500.0,500.0,500.0,500.0,500.0,500.0,500.0,500.0,502.0,502.0,502.0,485.0,487.0,487.0,487.0,487.0,470.0,470.0,470.0,470.0,463.0,463.0,463.0,463.0,478.0,478.0,478.0,478.0,482.0,482.0,482.0,506.0,496.0,463.0,12.0,17.0,61.0
0,512.0,504.0,498.0,512.0,501.0,498.0,508.93333333333334,503.24444444444447,485.6222222222222,506.0,510.0,510.0,510.0,510.0,509.0,509.0,509.0,509.0,511.0,511.0,511.0,511.0,510.0,510.0,510.0,510.0,510.0,512.0,512.0,504.0,500.0,500.0,500.0,500.0,500.0,500.0,500.0,500.0,500.0,500.0,500.0,500.0,502.0,502.0,502.0,502.0,502.0,501.0,501.0,487.0,470.0,470.0,470.0,470.0,463.0,463.0,463.0,463.0,478.0,478.0,478.0,478.0,482.0,482.0,482.0,482.0,482.0,498.0,498.0,506.0,500.0,463.0,8.0,17.0,53.0
0,512.0,506.0,519.0,509.0,506.0,519.0,509.26666666666665,502.73333333333335,485.2888888888889,510.0,510.0,509.0,509.0,509.0,509.0,511.0,511.0,511.0,511.0,510.0,510.0,510.0,510.0,510.0,512.0,512.0,512.0,509.0,509.0,500.0,500.0,500.0,500.0,500.0,500.0,500.0,500.0,500.0,500.0,502.0,502.0,502.0,502.0,502.0,501.0,501.0,501.0,506.0,506.0,470.0,470.0,463.0,463.0,463.0,463.0,478.0,478.0,478.0,478.0,482.0,482.0,482.0,482.0,482.0,498.0,498.0,498.0,519.0,519.0,509.0,500.0,463.0,8.0,17.0,56.0
0,512.0,506.0,519.0,507.0,504.0,518.0,509.2,502.26666666666665,487.26666666666665,509.0,509.0,511.0,511.0,511.0,511.0,510.0,510.0,510.0,510.0,510.0,512.0,512.0,512.0,512.0,509.0,509.0,509.0,509.0,507.0,500.0,500.0,500.0,500.0,500.0,500.0,502.0,502.0,502.0,502.0,502.0,501.0,501.0,501.0,501.0,506.0,506.0,506.0,506.0,504.0,463.0,463.0,478.0,478.0,478.0,478.0,482.0,482.0,482.0,482.0,482.0,498.0,498.0,498.0,498.0,519.0,519.0,519.0,519.0,518.0,507.0,500.0,463.0,8.0,14.0,56.0
0,512.0,520.0,524.0,510.0,520.0,524.0,509.06666666666666,502.5777777777778,489.75555555555553,511.0,511.0,510.0,510.0,510.0,510.0,510.0,512.0,512.0,512.0,512.0,509.0,509.0,509.0,509.0,507.0,507.0,507.0,510.0,510.0,500.0,500.0,502.0,502.0,502.0,502.0,502.0,501.0,501.0,501.0,501.0,506.0,506.0,506.0,506.0,504.0,504.0,504.0,520.0,520.0,478.0,478.0,482.0,482.0,482.0,482.0,482.0,498.0,498.0,498.0,498.0,519.0,519.0,519.0,519.0,518.0,518.0,518.0,524.0,524.0,507.0,500.0,478.0,8.0,24.0,61.0
0,512.0,520.0,540.0,508.0,515.0,540.0,509.2888888888889,503.64444444444445,493.4,510.0,510.0,510.0,512.0,512.0,512.0,512.0,509.0,509.0,509.0,509.0,507.0,507.0,507.0,510.0,510.0,510.0,510.0,508.0,508.0,502.0,502.0,502.0,501.0,501.0,501.0,501.0,506.0,506.0,506.0,506.0,504.0,504.0,504.0,520.0,520.0,520.0,520.0,515.0,515.0,482.0,482.0,482.0,498.0,498.0,498.0,498.0,519.0,519.0,519.0,519.0,518.0,518.0,518.0,524.0,524.0,524.0,524.0,540.0,540.0,507.0,501.0,482.0,8.0,24.0,77.0
0,513.0,520.0,540.0,513.0,519.0,539.0,509.55555555555554,505.15555555555557,498.06666666666666,512.0,512.0,512.0,509.0,509.0,509.0,509.0,507.0,507.0,507.0,510.0,510.0,510.0,510.0,508.0,508.0,508.0,508.0,513.0,513.0,501.0,501.0,501.0,506.0,506.0,506.0,506.0,504.0,504.0,504.0,520.0,520.0,520.0,520.0,515.0,515.0,515.0,515.0,519.0,519.0,498.0,498.0,498.0,519.0,519.0,519.0,519.0,518.0,518.0,518.0,524.0,524.0,524.0,524.0,540.0,540.0,540.0,540.0,539.0,539.0,507.0,501.0,498.0,7.0,24.0,77.0
0,513.0,520.0,540.0,509.0,516.0,540.0,509.6666666666667,506.8888888888889,502.8666666666667,509.0,509.0,509.0,507.0,507.0,507.0,510.0,510.0,510.0,510.0,508.0,508.0,508.0,508.0,513.0,513.0,513.0,513.0,509.0,509.0,506.0,506.0,506.0,504.0,504.0,504.0,520.0,520.0,520.0,520.0,515.0,515.0,515.0,515.0,519.0,519.0,519.0,519.0,516.0,516.0,519.0,519.0,519.0,518.0,518.0,518.0,524.0,524.0,524.0,524.0,540.0,540.0,540.0,540.0,539.0,539.0,539.0,539.0,540.0,540.0,507.0,504.0,518.0,7.0,20.0,77.0
0,513.0,520.0,555.0,506.0,502.0,555.0,509.73333333333335,507.06666666666666,507.06666666666666,507.0,507.0,507.0,510.0,510.0,510.0,510.0,508.0,508.0,508.0,508.0,513.0,513.0,513.0,513.0,509.0,509.0,509.0,506.0,506.0,504.0,504.0,504.0,520.0,520.0,520.0,520.0,515.0,515.0,515.0,515.0,519.0,519.0,519.0,519.0,516.0,516.0,516.0,502.0,502.0,518.0,518.0,518.0,524.0,524.0,524.0,524.0,540.0,540.0,540.0,540.0,539.0,539.0,539.0,539.0,540.0,540.0,540.0,555.0,555.0,506.0,502.0,518.0,7.0,20.0,92.0
0,513.0,520.0,555.0,512.0,502.0,546.0,509.7111111111111,507.2888888888889,516.0666666666667,510.0,510.0,508.0,508.0,508.0,508.0,513.0,513.0,513.0,513.0,509.0,509.0,509.0,506.0,506.0,506.0,506.0,512.0,512.0,512.0,520.0,520.0,515.0,515.0,515.0,515.0,519.0,519.0,519.0,519.0,516.0,516.0,516.0,502.0,502.0,502.0,502.0,502.0,502.0,502.0,524.0,524.0,540.0,540.0,540.0,540.0,539.0,539.0,539.0,539.0,540.0,540.0,540.0,555.0,555.0,555.0,555.0,546.0,546.0,546.0,506.0,502.0,524.0,7.0,20.0,92.0
0,513.0,519.0,555.0,512.0,500.0,533.0,509.93333333333334,507.3777777777778,522.5333333333333,508.0,508.0,513.0,513.0,513.0,513.0,509.0,509.0,509.0,506.0,506.0,506.0,506.0,512.0,512.0,512.0,512.0,512.0,512.0,512.0,515.0,515.0,519.0,519.0,519.0,519.0,516.0,516.0,516.0,502.0,502.0,502.0,502.0,502.0,502.0,502.0,502.0,502.0,500.0,500.0,540.0,540.0,539.0,539.0,539.0,539.0,540.0,540.0,540.0,555.0,555.0,555.0,555.0,546.0,546.0,546.0,546.0,546.0,533.0,533.0,506.0,500.0,533.0,7.0,20.0,77.0
0,519.0,519.0,555.0,519.0,503.0,517.0,510.35555555555555,507.46666666666664,526.6222222222223,513.0,513.0,509.0,509.0,509.0,506.0,506.0,506.0,506.0,512.0,512.0,512.0,512.0,512.0,512.0,512.0,512.0,512.0,519.0,519.0,519.0,519.0,516.0,516.0,516.0,502.0,502.0,502.0,502.0,502.0,502.0,502.0,502.0,502.0,500.0,500.0,500.0,500.0,503.0,503.0,539.0,539.0,540.0,540.0,540.0,555.0,555.0,555.0,555.0,546.0,546.0,546.0,546.0,546.0,533.0,533.0,533.0,533.0,517.0,517.0,506.0,500.0,517.0,13.0,20.0,73.0
0,519.0,516.0,555.0,507.0,511.0,530.0,510.6222222222222,507.9111111111111,530.3111111111111,509.0,506.0,506.0,506.0,506.0,512.0,512.0,512.0,512.0,512.0,512.0,512.0,512.0,512.0,519.0,519.0,519.0,519.0,507.0,507.0,516.0,502.0,502.0,502.0,502.0,502.0,502.0,502.0,502.0,502.0,500.0,500.0,500.0,500.0,503.0,503.0,503.0,503.0,511.0,511.0,540.0,555.0,555.0,555.0,555.0,546.0,546.0,546.0,546.0,546.0,533.0,533.0,533.0,533.0,517.0,517.0,517.0,517.0,530.0,530.0,506.0,500.0,517.0,13.0,20.0,57.0
0,519.0,511.0,555.0,508.0,505.0,528.0,510.22222222222223,508.53333333333336,533.0666666666667,506.0,512.0,512.0,512.0,512.0,512.0,512.0,512.0,512.0,512.0,519.0,519.0,519.0,519.0,507.0,507.0,507.0,507.0,508.0,508.0,502.0,502.0,502.0,502.0,502.0,502.0,500.0,500.0,500.0,500.0,503.0,503.0,503.0,503.0,511.0,511.0,511.0,511.0,505.0,505.0,555.0,546.0,546.0,546.0,546.0,546.0,533.0,533.0,533.0,533.0,517.0,517.0,517.0,517.0,530.0,530.0,530.0,530.0,528.0,528.0,506.0,500.0,517.0,13.0,20.0,38.0
0,519.0,511.0,546.0,501.0,510.0,516.0,509.8222222222222,508.6666666666667,533.3333333333334,512.0,512.0,512.0,512.0,512.0,512.0,519.0,519.0,519.0,519.0,507.0,507.0,507.0,507.0,508.0,508.0,508.0,508.0,501.0,501.0,502.0,502.0,500.0,500.0,500.0,500.0,503.0,503.0,503.0,503.0,511.0,511.0,511.0,511.0,505.0,505.0,505.0,505.0,510.0,510.0,546.0,546.0,533.0,533.0,533.0,533.0,517.0,517.0,517.0,517.0,530.0,530.0,530.0,530.0,528.0,528.0,528.0,528.0,516.0,516.0,501.0,500.0,516.0,18.0,20.0,39.0
0,519.0,511.0,533.0,507.0,507.0,513.0,509.68888888888887,508.93333333333334,533.0666666666667,512.0,512.0,512.0,519.0,519.0,519.0,519.0,507.0,507.0,507.0,507.0,508.0,508.0,508.0,508.0,501.0,501.0,501.0,507.0,507.0,500.0,500.0,500.0,503.0,503.0,503.0,503.0,511.0,511.0,511.0,511.0,505.0,505.0,505.0,505.0,510.0,510.0,510.0,507.0,507.0,533.0,533.0,533.0,517.0,517.0,517.0,517.0,530.0,530.0,530.0,530.0,528.0,528.0,528.0,528.0,516.0,516.0,516.0,513.0,513.0,501.0,500.0,513.0,18.0,20.0,42.0
0,519.0,511.0,530.0,500.0,504.0,502.0,509.1111111111111,507.64444444444445,531.6,519.0,519.0,519.0,507.0,507.0,507.0,507.0,508.0,508.0,508.0,508.0,501.0,501.0,501.0,507.0,507.0,507.0,507.0,500.0,500.0,503.0,503.0,503.0,511.0,511.0,511.0,511.0,505.0,505.0,505.0,505.0,510.0,510.0,510.0,507.0,507.0,507.0,507.0,504.0,504.0,517.0,517.0,517.0,530.0,530.0,530.0,530.0,528.0,528.0,528.0,528.0,516.0,516.0,516.0,513.0,513.0,513.0,513.0,502.0,502.0,500.0,503.0,502.0,19.0,19.0,53.0
0,508.0,511.0,530.0,507.0,506.0,484.0,508.7111111111111,506.75555555555553,527.4222222222222,507.0,507.0,507.0,508.0,508.0,508.0,508.0,501.0,501.0,501.0,507.0,507.0,507.0,507.0,500.0,500.0,500.0,500.0,507.0,507.0,511.0,511.0,511.0,505.0,505.0,505.0,505.0,510.0,510.0,510.0,507.0,507.0,507.0,507.0,504.0,504.0,504.0,504.0,506.0,506.0,530.0,530.0,530.0,528.0,528.0,528.0,528.0,516.0,516.0,516.0,513.0,513.0,513.0,513.0,502.0,502.0,502.0,502.0,484.0,484.0,500.0,504.0,484.0,19.0,19.0,71.0
0,508.0,512.0,528.0,498.0,512.0,495.0,507.77777777777777,505.8666666666667,523.0222222222222,508.0,508.0,508.0,501.0,501.0,501.0,507.0,507.0,507.0,507.0,500.0,500.0,500.0,500.0,507.0,507.0,507.0,507.0,498.0,498.0,505.0,505.0,505.0,510.0,510.0,510.0,507.0,507.0,507.0,507.0,504.0,504.0,504.0,504.0,506.0,506.0,506.0,506.0,512.0,512.0,528.0,528.0,528.0,516.0,516.0,516.0,513.0,513.0,513.0,513.0,502.0,502.0,502.0,502.0,484.0,484.0,484.0,484.0,495.0,495.0,498.0,504.0,484.0,21.0,16.0,71.0
0,509.0,512.0,516.0,509.0,496.0,494.0,507.35555555555555,505.1111111111111,518.6444444444444,501.0,501.0,507.0,507.0,507.0,507.0,500.0,500.0,500.0,500.0,507.0,507.0,507.0,507.0,498.0,498.0,498.0,498.0,509.0,509.0,510.0,510.0,507.0,507.0,507.0,507.0,504.0,504.0,504.0,504.0,506.0,506.0,506.0,506.0,512.0,512.0,512.0,512.0,496.0,496.0,516.0,516.0,513.0,513.0,513.0,513.0,502.0,502.0,502.0,502.0,484.0,484.0,484.0,484.0,495.0,495.0,495.0,495.0,494.0,494.0,498.0,496.0,484.0,21.0,16.0,71.0
0,509.0,512.0,513.0,505.0,490.0,488.0,507.4,504.7111111111111,515.8,507.0,507.0,507.0,507.0,500.0,500.0,500.0,500.0,507.0,507.0,507.0,507.0,498.0,498.0,498.0,498.0,509.0,509.0,509.0,505.0,507.0,507.0,507.0,507.0,504.0,504.0,504.0,504.0,506.0,506.0,506.0,506.0,512.0,512.0,512.0,512.0,496.0,496.0,496.0,490.0,513.0,513.0,513.0,513.0,502.0,502.0,502.0,502.0,484.0,484.0,484.0,484.0,495.0,495.0,495.0,495.0,494.0,494.0,494.0,488.0,498.0,490.0,484.0,21.0,22.0,71.0
0,511.0,512.0,502.0,511.0,496.0,498.0,507.02222222222224,503.64444444444445,509.6,500.0,500.0,500.0,507.0,507.0,507.0,507.0,498.0,498.0,498.0,498.0,509.0,509.0,509.0,505.0,505.0,505.0,505.0,511.0,511.0,504.0,504.0,504.0,506.0,506.0,506.0,506.0,512.0,512.0,512.0,512.0,496.0,496.0,496.0,490.0,490.0,490.0,490.0,496.0,496.0,502.0,502.0,502.0,484.0,484.0,484.0,484.0,495.0,495.0,495.0,495.0,494.0,494.0,494.0,488.0,488.0,488.0,488.0,498.0,498.0,498.0,490.0,484.0,21.0,22.0,62.0
0,513.0,512.0,505.0,513.0,490.0,505.0,507.06666666666666,502.84444444444443,506.6666666666667,507.0,507.0,507.0,498.0,498.0,498.0,498.0,509.0,509.0,509.0,505.0,505.0,505.0,505.0,511.0,511.0,511.0,513.0,513.0,513.0,506.0,506.0,506.0,512.0,512.0,512.0,512.0,496.0,496.0,496.0,490.0,490.0,490.0,490.0,496.0,496.0,496.0,490.0,490.0,490.0,484.0,484.0,484.0,495.0,495.0,495.0,495.0,494.0,494.0,494.0,488.0,488.0,488.0,488.0,498.0,498.0,498.0,505.0,505.0,505.0,498.0,490.0,484.0,21.0,22.0,49.0
0,513.0,512.0,505.0,505.0,496.0,494.0,506.64444444444445,502.1777777777778,505.26666666666665,498.0,498.0,498.0,498.0,509.0,509.0,509.0,505.0,505.0,505.0,505.0,511.0,511.0,511.0,513.0,513.0,513.0,513.0,513.0,505.0,512.0,512.0,512.0,512.0,496.0,496.0,496.0,490.0,490.0,490.0,490.0,496.0,496.0,496.0,490.0,490.0,490.0,490.0,490.0,496.0,495.0,495.0,495.0,495.0,494.0,494.0,494.0,488.0,488.0,488.0,488.0,498.0,498.0,498.0,505.0,505.0,505.0,505.0,505.0,494.0,498.0,490.0,488.0,21.0,22.0,46.0
0,514.0,512.0,505.0,514.0,512.0,490.0,506.2888888888889,501.5777777777778,501.6666666666667,509.0,509.0,505.0,505.0,505.0,505.0,511.0,511.0,511.0,513.0,513.0,513.0,513.0,513.0,505.0,505.0,505.0,505.0,514.0,514.0,496.0,496.0,490.0,490.0,490.0,490.0,496.0,496.0,496.0,490.0,490.0,490.0,490.0,490.0,496.0,496.0,496.0,496.0,512.0,512.0,494.0,494.0,488.0,488.0,488.0,488.0,498.0,498.0,498.0,505.0,505.0,505.0,505.0,505.0,494.0,494.0,494.0,494.0,490.0,490.0,505.0,490.0,488.0,16.0,22.0,46.0
0,514.0,512.0,510.0,507.0,501.0,510.0,506.53333333333336,501.5777777777778,499.1333333333333,505.0,505.0,511.0,511.0,511.0,513.0,513.0,513.0,513.0,513.0,505.0,505.0,505.0,505.0,514.0,514.0,514.0,514.0,507.0,507.0,490.0,490.0,496.0,496.0,496.0,490.0,490.0,490.0,490.0,490.0,496.0,496.0,496.0,496.0,512.0,512.0,512.0,512.0,501.0,501.0,488.0,488.0,498.0,498.0,498.0,505.0,505.0,505.0,505.0,505.0,494.0,494.0,494.0,494.0,490.0,490.0,490.0,490.0,510.0,510.0,505.0,490.0,488.0,16.0,22.0,44.0
0,514.0,512.0,522.0,507.0,508.0,522.0,506.9111111111111,501.2,498.8666666666667,511.0,513.0,513.0,513.0,513.0,513.0,505.0,505.0,505.0,505.0,514.0,514.0,514.0,514.0,507.0,507.0,507.0,507.0,507.0,507.0,496.0,490.0,490.0,490.0,490.0,490.0,496.0,496.0,496.0,496.0,512.0,512.0,512.0,512.0,501.0,501.0,501.0,501.0,508.0,508.0,498.0,505.0,505.0,505.0,505.0,505.0,494.0,494.0,494.0,494.0,490.0,490.0,490.0,490.0,510.0,510.0,510.0,510.0,522.0,522.0,505.0,490.0,490.0,16.0,22.0,38.0
0,514.0,516.0,522.0,509.0,516.0,516.0,507.0,501.64444444444445,499.4,513.0,513.0,505.0,505.0,505.0,505.0,514.0,514.0,514.0,514.0,507.0,507.0,507.0,507.0,507.0,507.0,507.0,507.0,509.0,509.0,490.0,490.0,496.0,496.0,496.0,496.0,512.0,512.0,512.0,512.0,501.0,501.0,501.0,501.0,508.0,508.0,508.0,508.0,516.0,516.0,505.0,505.0,494.0,494.0,494.0,494.0,490.0,490.0,490.0,490.0,510.0,510.0,510.0,510.0,522.0,522.0,522.0,522.0,516.0,516.0,505.0,490.0,490.0,16.0,26.0,38.0
0,514.0,516.0,530.0,507.0,515.0,530.0,507.7111111111111,502.6666666666667,501.26666666666665,505.0,505.0,514.0,514.0,514.0,514.0,507.0,507.0,507.0,507.0,507.0,507.0,507.0,507.0,509.0,509.0,509.0,509.0,507.0,507.0,496.0,496.0,512.0,512.0,512.0,512.0,501.0,501.0,501.0,501.0,508.0,508.0,508.0,508.0,516.0,516.0,516.0,516.0,515.0,515.0,494.0,494.0,490.0,490.0,490.0,490.0,510.0,510.0,510.0,510.0,522.0,522.0,522.0,522.0,516.0,516.0,516.0,516.0,530.0,530.0,505.0,496.0,490.0,16.0,26.0,46.0
0,514.0,516.0,538.0,513.0,507.0,538.0,507.97777777777776,503.1111111111111,505.7111111111111,514.0,514.0,507.0,507.0,507.0,507.0,507.0,507.0,507.0,507.0,509.0,509.0,509.0,509.0,507.0,507.0,507.0,507.0,513.0,513.0,512.0,512.0,501.0,501.0,501.0,501.0,508.0,508.0,508.0,508.0,516.0,516.0,516.0,516.0,515.0,515.0,515.0,515.0,507.0,507.0,490.0,490.0,510.0,510.0,510.0,510.0,522.0,522.0,522.0,522.0,516.0,516.0,516.0,516.0,530.0,530.0,530.0,530.0,538.0,538.0,507.0,501.0,490.0,16.0,26.0,50.0
0,513.0,516.0,540.0,507.0,507.0,540.0,509.0444444444444,502.6666666666667,509.6222222222222,507.0,507.0,507.0,507.0,507.0,507.0,509.0,509.0,509.0,509.0,507.0,507.0,507.0,507.0,513.0,513.0,513.0,513.0,507.0,507.0,501.0,501.0,508.0,508.0,508.0,508.0,516.0,516.0,516.0,516.0,515.0,515.0,515.0,515.0,507.0,507.0,507.0,507.0,507.0,507.0,510.0,510.0,522.0,522.0,522.0,522.0,516.0,516.0,516.0,516.0,530.0,530.0,530.0,530.0,538.0,538.0,538.0,538.0,540.0,540.0,507.0,501.0,510.0,9.0,26.0,52.0
0,513.0,516.0,545.0,509.0,499.0,545.0,509.0,503.0444444444444,512.9111111111112,507.0,507.0,507.0,509.0,509.0,509.0,509.0,507.0,507.0,507.0,507.0,513.0,513.0,513.0,513.0,507.0,507.0,507.0,509.0,509.0,508.0,508.0,508.0,516.0,516.0,516.0,516.0,515.0,515.0,515.0,515.0,507.0,507.0,507.0,507.0,507.0,507.0,507.0,499.0,499.0,522.0,522.0,522.0,516.0,516.0,516.0,516.0,530.0,530.0,530.0,530.0,538.0,538.0,538.0,538.0,540.0,540.0,540.0,545.0,545.0,507.0,499.0,516.0,9.0,26.0,57.0
0,513.0,516.0,545.0,504.0,505.0,542.0,509.1333333333333,504.1111111111111,517.8444444444444,509.0,509.0,509.0,507.0,507.0,507.0,507.0,513.0,513.0,513.0,513.0,507.0,507.0,507.0,509.0,509.0,509.0,509.0,504.0,504.0,516.0,516.0,516.0,515.0,515.0,515.0,515.0,507.0,507.0,507.0,507.0,507.0,507.0,507.0,499.0,499.0,499.0,499.0,505.0,505.0,516.0,516.0,516.0,530.0,530.0,530.0,530.0,538.0,538.0,538.0,538.0,540.0,540.0,540.0,545.0,545.0,545.0,545.0,542.0,542.0,504.0,499.0,516.0,10.0,26.0,55.0
0,513.0,515.0,545.0,509.0,499.0,525.0,508.68888888888887,504.77777777777777,520.8444444444444,507.0,507.0,507.0,513.0,513.0,513.0,513.0,507.0,507.0,507.0,509.0,509.0,509.0,509.0,504.0,504.0,504.0,504.0,509.0,509.0,515.0,515.0,515.0,507.0,507.0,507.0,507.0,507.0,507.0,507.0,499.0,499.0,499.0,499.0,505.0,505.0,505.0,505.0,499.0,499.0,530.0,530.0,530.0,538.0,538.0,538.0,538.0,540.0,540.0,540.0,545.0,545.0,545.0,545.0,542.0,542.0,542.0,542.0,525.0,525.0,504.0,499.0,525.0,10.0,26.0,55.0
0,517.0,507.0,545.0,517.0,504.0,525.0,508.68888888888887,505.8,522.6222222222223,513.0,513.0,513.0,507.0,507.0,507.0,509.0,509.0,509.0,509.0,504.0,504.0,504.0,504.0,509.0,509.0,509.0,509.0,517.0,517.0,507.0,507.0,507.0,507.0,507.0,507.0,499.0,499.0,499.0,499.0,505.0,505.0,505.0,505.0,499.0,499.0,499.0,499.0,504.0,504.0,538.0,538.0,538.0,540.0,540.0,540.0,545.0,545.0,545.0,545.0,542.0,542.0,542.0,542.0,525.0,525.0,525.0,525.0,525.0,525.0,504.0,499.0,525.0,13.0,20.0,55.0
0,517.0,507.0,545.0,507.0,505.0,518.0,509.31111111111113,506.55555555555554,525.0666666666667,507.0,507.0,509.0,509.0,509.0,509.0,504.0,504.0,504.0,504.0,509.0,509.0,509.0,509.0,517.0,517.0,517.0,517.0,507.0,507.0,507.0,507.0,499.0,499.0,499.0,499.0,505.0,505.0,505.0,505.0,499.0,499.0,499.0,499.0,504.0,504.0,504.0,504.0,505.0,505.0,540.0,540.0,545.0,545.0,545.0,545.0,542.0,542.0,542.0,542.0,525.0,525.0,525.0,525.0,525.0,525.0,525.0,525.0,518.0,518.0,504.0,499.0,518.0,13.0,20.0,55.0
0,517.0,513.0,545.0,510.0,513.0,503.0,508.8888888888889,506.55555555555554,526.7333333333333,509.0,504.0,504.0,504.0,504.0,509.0,509.0,509.0,509.0,517.0,517.0,517.0,517.0,507.0,507.0,507.0,507.0,510.0,510.0,510.0,499.0,505.0,505.0,505.0,505.0,499.0,499.0,499.0,499.0,504.0,504.0,504.0,504.0,505.0,505.0,505.0,505.0,513.0,513.0,513.0,545.0,542.0,542.0,542.0,542.0,525.0,525.0,525.0,525.0,525.0,525.0,525.0,525.0,518.0,518.0,518.0,518.0,503.0,503.0,503.0,504.0,499.0,503.0,13.0,17.0,42.0
0,517.0,513.0,542.0,507.0,508.0,492.0,509.02222222222224,507.24444444444447,525.3555555555556,504.0,509.0,509.0,509.0,509.0,517.0,517.0,517.0,517.0,507.0,507.0,507.0,507.0,510.0,510.0,510.0,510.0,510.0,507.0,507.0,505.0,499.0,499.0,499.0,499.0,504.0,504.0,504.0,504.0,505.0,505.0,505.0,505.0,513.0,513.0,513.0,513.0,513.0,508.0,508.0,542.0,525.0,525.0,525.0,525.0,525.0,525.0,525.0,525.0,518.0,518.0,518.0,518.0,503.0,503.0,503.0,503.0,503.0,492.0,492.0,504.0,499.0,492.0,13.0,17.0,53.0
0,517.0,513.0,525.0,510.0,492.0,492.0,509.1111111111111,506.35555555555555,522.8222222222222,509.0,517.0,517.0,517.0,517.0,507.0,507.0,507.0,507.0,510.0,510.0,510.0,510.0,510.0,507.0,507.0,507.0,507.0,510.0,510.0,499.0,504.0,504.0,504.0,504.0,505.0,505.0,505.0,505.0,513.0,513.0,513.0,513.0,513.0,508.0,508.0,508.0,508.0,492.0,492.0,525.0,525.0,525.0,525.0,525.0,518.0,518.0,518.0,518.0,503.0,503.0,503.0,503.0,503.0,492.0,492.0,492.0,492.0,492.0,492.0,507.0,492.0,492.0,13.0,24.0,53.0
0,517.0,513.0,525.0,508.0,506.0,492.0,509.15555555555557,504.8666666666667,520.3777777777777,517.0,507.0,507.0,507.0,507.0,510.0,510.0,510.0,510.0,510.0,507.0,507.0,507.0,507.0,510.0,510.0,510.0,510.0,508.0,508.0,504.0,505.0,505.0,505.0,505.0,513.0,513.0,513.0,513.0,513.0,508.0,508.0,508.0,508.0,492.0,492.0,492.0,492.0,506.0,506.0,525.0,518.0,518.0,518.0,518.0,503.0,503.0,503.0,503.0,503.0,492.0,492.0,492.0,492.0,492.0,492.0,492.0,492.0,492.0,492.0,507.0,492.0,492.0,13.0,23.0,53.0
0,510.0,513.0,518.0,510.0,500.0,474.0,509.2,503.97777777777776,516.0222222222222,507.0,510.0,510.0,510.0,510.0,510.0,507.0,507.0,507.0,507.0,510.0,510.0,510.0,510.0,508.0,508.0,508.0,508.0,510.0,510.0,505.0,513.0,513.0,513.0,513.0,513.0,508.0,508.0,508.0,508.0,492.0,492.0,492.0,492.0,506.0,506.0,506.0,506.0,500.0,500.0,518.0,503.0,503.0,503.0,503.0,503.0,492.0,492.0,492.0,492.0,492.0,492.0,492.0,492.0,492.0,492.0,492.0,492.0,474.0,474.0,507.0,492.0,474.0,13.0,21.0,71.0
0,510.0,513.0,503.0,509.0,499.0,476.0,508.97777777777776,503.4888888888889,511.8,510.0,510.0,510.0,507.0,507.0,507.0,507.0,510.0,510.0,510.0,510.0,508.0,508.0,508.0,508.0,510.0,510.0,510.0,510.0,509.0,513.0,513.0,513.0,508.0,508.0,508.0,508.0,492.0,492.0,492.0,492.0,506.0,506.0,506.0,506.0,500.0,500.0,500.0,500.0,499.0,503.0,503.0,503.0,492.0,492.0,492.0,492.0,492.0,492.0,492.0,492.0,492.0,492.0,492.0,492.0,474.0,474.0,474.0,474.0,476.0,507.0,492.0,474.0,13.0,21.0,71.0
0,510.0,508.0,492.0,510.0,499.0,490.0,509.15555555555557,502.9555555555556,505.0888888888889,507.0,507.0,510.0,510.0,510.0,510.0,508.0,508.0,508.0,508.0,510.0,510.0,510.0,510.0,509.0,509.0,509.0,509.0,510.0,510.0,508.0,508.0,492.0,492.0,492.0,492.0,506.0,506.0,506.0,506.0,500.0,500.0,500.0,500.0,499.0,499.0,499.0,499.0,499.0,499.0,492.0,492.0,492.0,492.0,492.0,492.0,492.0,492.0,492.0,492.0,474.0,474.0,474.0,474.0,476.0,476.0,476.0,476.0,490.0,490.0,507.0,492.0,474.0,13.0,21.0,71.0
0,511.0,506.0,492.0,511.0,502.0,487.0,509.3777777777778,502.9555555555556,501.35555555555555,510.0,510.0,510.0,508.0,508.0,508.0,508.0,510.0,510.0,510.0,510.0,509.0,509.0,509.0,509.0,510.0,510.0,510.0,511.0,511.0,492.0,492.0,492.0,506.0,506.0,506.0,506.0,500.0,500.0,500.0,500.0,499.0,499.0,499.0,499.0,499.0,499.0,499.0,502.0,502.0,492.0,492.0,492.0,492.0,492.0,492.0,492.0,474.0,474.0,474.0,474.0,476.0,476.0,476.0,476.0,490.0,490.0,490.0,487.0,487.0,508.0,492.0,474.0,13.0,21.0,68.0
0,512.0,506.0,492.0,512.0,495.0,491.0,509.93333333333334,502.5111111111111,497.02222222222224,508.0,508.0,508.0,510.0,510.0,510.0,510.0,509.0,509.0,509.0,509.0,510.0,510.0,510.0,511.0,511.0,511.0,511.0,512.0,512.0,506.0,506.0,506.0,500.0,500.0,500.0,500.0,499.0,499.0,499.0,499.0,499.0,499.0,499.0,502.0,502.0,502.0,502.0,495.0,495.0,492.0,492.0,492.0,474.0,474.0,474.0,474.0,476.0,476.0,476.0,476.0,490.0,490.0,490.0,487.0,487.0,487.0,487.0,491.0,491.0,508.0,495.0,474.0,10.0,21.0,51.0
0,512.0,502.0,502.0,511.0,501.0,502.0,509.97777777777776,502.31111111111113,494.4888888888889,510.0,510.0,510.0,509.0,509.0,509.0,509.0,510.0,510.0,510.0,511.0,511.0,511.0,511.0,512.0,512.0,512.0,512.0,511.0,511.0,500.0,500.0,500.0,499.0,499.0,499.0,499.0,499.0,499.0,499.0,502.0,502.0,502.0,502.0,495.0,495.0,495.0,495.0,501.0,501.0,474.0,474.0,474.0,476.0,476.0,476.0,476.0,490.0,490.0,490.0,487.0,487.0,487.0,487.0,491.0,491.0,491.0,491.0,502.0,502.0,509.0,495.0,474.0,10.0,21.0,51.0
0,512.0,508.0,502.0,511.0,508.0,501.0,509.6666666666667,502.3333333333333,492.55555555555554,509.0,509.0,509.0,510.0,510.0,510.0,511.0,511.0,511.0,511.0,512.0,512.0,512.0,512.0,511.0,511.0,511.0,511.0,511.0,511.0,499.0,499.0,499.0,499.0,499.0,499.0,502.0,502.0,502.0,502.0,495.0,495.0,495.0,495.0,501.0,501.0,501.0,501.0,508.0,508.0,476.0,476.0,476.0,490.0,490.0,490.0,487.0,487.0,487.0,487.0,491.0,491.0,491.0,491.0,502.0,502.0,502.0,502.0,501.0,501.0,509.0,495.0,476.0,5.0,21.0,44.0
0,512.0,508.0,503.0,504.0,501.0,503.0,509.64444444444445,502.1111111111111,491.46666666666664,510.0,510.0,511.0,511.0,511.0,511.0,512.0,512.0,512.0,512.0,511.0,511.0,511.0,511.0,511.0,511.0,511.0,511.0,504.0,504.0,499.0,499.0,502.0,502.0,502.0,502.0,495.0,495.0,495.0,495.0,501.0,501.0,501.0,501.0,508.0,508.0,508.0,508.0,501.0,501.0,490.0,490.0,487.0,487.0,487.0,487.0,491.0,491.0,491.0,491.0,502.0,502.0,502.0,502.0,501.0,501.0,501.0,501.0,503.0,503.0,504.0,495.0,487.0,8.0,21.0,29.0
0,512.0,512.0,520.0,510.0,512.0,520.0,509.3777777777778,501.53333333333336,492.22222222222223,511.0,511.0,512.0,512.0,512.0,512.0,511.0,511.0,511.0,511.0,511.0,511.0,511.0,511.0,504.0,504.0,504.0,504.0,510.0,510.0,502.0,502.0,495.0,495.0,495.0,495.0,501.0,501.0,501.0,501.0,508.0,508.0,508.0,508.0,501.0,501.0,501.0,501.0,512.0,512.0,487.0,487.0,491.0,491.0,491.0,491.0,502.0,502.0,502.0,502.0,501.0,501.0,501.0,501.0,503.0,503.0,503.0,503.0,520.0,520.0,504.0,495.0,487.0,8.0,20.0,46.0
0,519.0,512.0,531.0,519.0,512.0,531.0,510.0444444444444,501.8888888888889,495.2,512.0,512.0,511.0,511.0,511.0,511.0,511.0,511.0,511.0,511.0,504.0,504.0,504.0,504.0,510.0,510.0,510.0,510.0,519.0,519.0,495.0,495.0,501.0,501.0,501.0,501.0,508.0,508.0,508.0,508.0,501.0,501.0,501.0,501.0,512.0,512.0,512.0,512.0,512.0,512.0,491.0,491.0,502.0,502.0,502.0,502.0,501.0,501.0,501.0,501.0,503.0,503.0,503.0,503.0,520.0,520.0,520.0,520.0,531.0,531.0,504.0,495.0,491.0,15.0,20.0,57.0
0,519.0,517.0,541.0,507.0,517.0,541.0,510.31111111111113,503.8888888888889,499.1111111111111,511.0,511.0,511.0,511.0,511.0,511.0,504.0,504.0,504.0,504.0,510.0,510.0,510.0,510.0,519.0,519.0,519.0,519.0,507.0,507.0,501.0,501.0,508.0,508.0,508.0,508.0,501.0,501.0,501.0,501.0,512.0,512.0,512.0,512.0,512.0,512.0,512.0,512.0,517.0,517.0,502.0,502.0,501.0,501.0,501.0,501.0,503.0,503.0,503.0,503.0,520.0,520.0,520.0,520.0,531.0,531.0,531.0,531.0,541.0,541.0,504.0,501.0,501.0,15.0,22.0,67.0
0,519.0,517.0,545.0,505.0,512.0,545.0,510.2,504.5111111111111,502.46666666666664,511.0,511.0,511.0,504.0,504.0,504.0,504.0,510.0,510.0,510.0,510.0,519.0,519.0,519.0,519.0,507.0,507.0,507.0,507.0,505.0,508.0,508.0,508.0,501.0,501.0,501.0,501.0,512.0,512.0,512.0,512.0,512.0,512.0,512.0,512.0,517.0,517.0,517.0,517.0,512.0,501.0,501.0,501.0,503.0,503.0,503.0,503.0,520.0,520.0,520.0,520.0,531.0,531.0,531.0,531.0,541.0,541.0,541.0,541.0,545.0,504.0,501.0,501.0,15.0,22.0,71.0
0,519.0,517.0,545.0,508.0,505.0,539.0,509.93333333333334,505.1333333333333,508.1111111111111,504.0,504.0,504.0,510.0,510.0,510.0,510.0,519.0,519.0,519.0,519.0,507.0,507.0,507.0,507.0,505.0,505.0,505.0,508.0,508.0,501.0,501.0,501.0,512.0,512.0,512.0,512.0,512.0,512.0,512.0,512.0,517.0,517.0,517.0,517.0,512.0,512.0,512.0,505.0,505.0,503.0,503.0,503.0,520.0,520.0,520.0,520.0,531.0,531.0,531.0,531.0,541.0,541.0,541.0,541.0,545.0,545.0,545.0,539.0,539.0,504.0,501.0,503.0,15.0,22.0,71.0
0,519.0,517.0,545.0,506.0,505.0,537.0,509.73333333333335,505.64444444444445,513.6666666666666,510.0,510.0,510.0,519.0,519.0,519.0,519.0,507.0,507.0,507.0,507.0,505.0,505.0,505.0,508.0,508.0,508.0,508.0,506.0,506.0,512.0,512.0,512.0,512.0,512.0,512.0,512.0,517.0,517.0,517.0,517.0,512.0,512.0,512.0,505.0,505.0,505.0,505.0,505.0,505.0,520.0,520.0,520.0,531.0,531.0,531.0,531.0,541.0,541.0,541.0,541.0,545.0,545.0,545.0,539.0,539.0,539.0,539.0,537.0,537.0,505.0,505.0,520.0,15.0,22.0,69.0
0,519.0,517.0,545.0,509.0,508.0,532.0,509.6222222222222,506.1777777777778,516.8888888888889,519.0,519.0,519.0,519.0,507.0,507.0,507.0,507.0,505.0,505.0,505.0,508.0,508.0,508.0,508.0,506.0,506.0,506.0,509.0,509.0,512.0,512.0,512.0,512.0,517.0,517.0,517.0,517.0,512.0,512.0,512.0,505.0,505.0,505.0,505.0,505.0,505.0,505.0,508.0,508.0,531.0,531.0,531.0,531.0,541.0,541.0,541.0,541.0,545.0,545.0,545.0,539.0,539.0,539.0,539.0,537.0,537.0,537.0,532.0,532.0,505.0,505.0,531.0,15.0,22.0,58.0
0,520.0,517.0,545.0,520.0,500.0,536.0,509.9555555555556,506.4222222222222,521.0,507.0,507.0,507.0,507.0,505.0,505.0,505.0,508.0,508.0,508.0,508.0,506.0,506.0,506.0,509.0,509.0,509.0,509.0,520.0,520.0,517.0,517.0,517.0,517.0,512.0,512.0,512.0,505.0,505.0,505.0,505.0,505.0,505.0,505.0,508.0,508.0,508.0,508.0,500.0,500.0,541.0,541.0,541.0,541.0,545.0,545.0,545.0,539.0,539.0,539.0,539.0,537.0,537.0,537.0,532.0,532.0,532.0,532.0,536.0,536.0,505.0,500.0,532.0,16.0,22.0,58.0
0,520.0,512.0,545.0,507.0,500.0,537.0,510.1111111111111,506.7111111111111,525.1333333333333,505.0,505.0,505.0,508.0,508.0,508.0,508.0,506.0,506.0,506.0,509.0,509.0,509.0,509.0,520.0,520.0,520.0,520.0,507.0,507.0,512.0,512.0,512.0,505.0,505.0,505.0,505.0,505.0,505.0,505.0,508.0,508.0,508.0,508.0,500.0,500.0,500.0,500.0,500.0,500.0,545.0,545.0,545.0,539.0,539.0,539.0,539.0,537.0,537.0,537.0,532.0,532.0,532.0,532.0,536.0,536.0,536.0,536.0,537.0,537.0,505.0,500.0,532.0,16.0,22.0,54.0
0,520.0,516.0,539.0,502.0,516.0,519.0,509.5111111111111,507.46666666666664,527.6888888888889,508.0,508.0,508.0,506.0,506.0,506.0,509.0,509.0,509.0,509.0,520.0,520.0,520.0,520.0,507.0,507.0,507.0,507.0,502.0,502.0,505.0,505.0,505.0,505.0,505.0,505.0,508.0,508.0,508.0,508.0,500.0,500.0,500.0,500.0,500.0,500.0,500.0,500.0,516.0,516.0,539.0,539.0,539.0,537.0,537.0,537.0,532.0,532.0,532.0,532.0,536.0,536.0,536.0,536.0,537.0,537.0,537.0,537.0,519.0,519.0,502.0,500.0,519.0,18.0,17.0,44.0
0,520.0,516.0,537.0,512.0,504.0,505.0,509.15555555555557,507.8,528.6444444444444,506.0,506.0,509.0,509.0,509.0,509.0,520.0,520.0,520.0,520.0,507.0,507.0,507.0,507.0,502.0,502.0,502.0,502.0,512.0,512.0,505.0,505.0,508.0,508.0,508.0,508.0,500.0,500.0,500.0,500.0,500.0,500.0,500.0,500.0,516.0,516.0,516.0,516.0,504.0,504.0,537.0,537.0,532.0,532.0,532.0,532.0,536.0,536.0,536.0,536.0,537.0,537.0,537.0,537.0,519.0,519.0,519.0,519.0,505.0,505.0,502.0,500.0,505.0,18.0,17.0,44.0
0,520.0,517.0,537.0,507.0,517.0,504.0,509.4888888888889,508.4888888888889,528.8222222222222,509.0,509.0,520.0,520.0,520.0,520.0,507.0,507.0,507.0,507.0,502.0,502.0,502.0,502.0,512.0,512.0,512.0,512.0,507.0,507.0,508.0,508.0,500.0,500.0,500.0,500.0,500.0,500.0,500.0,500.0,516.0,516.0,516.0,516.0,504.0,504.0,504.0,504.0,517.0,517.0,532.0,532.0,536.0,536.0,536.0,536.0,537.0,537.0,537.0,537.0,519.0,519.0,519.0,519.0,505.0,505.0,505.0,505.0,504.0,504.0,502.0,500.0,504.0,18.0,17.0,42.0
0,520.0,517.0,537.0,505.0,507.0,503.0,509.26666666666665,508.73333333333335,527.7333333333333,520.0,520.0,507.0,507.0,507.0,507.0,502.0,502.0,502.0,502.0,512.0,512.0,512.0,512.0,507.0,507.0,507.0,507.0,505.0,505.0,500.0,500.0,500.0,500.0,500.0,500.0,516.0,516.0,516.0,516.0,504.0,504.0,504.0,504.0,517.0,517.0,517.0,517.0,507.0,507.0,536.0,536.0,537.0,537.0,537.0,537.0,519.0,519.0,519.0,519.0,505.0,505.0,505.0,505.0,504.0,504.0,504.0,504.0,503.0,503.0,502.0,500.0,503.0,18.0,17.0,42.0
0,512.0,517.0,537.0,503.0,509.0,498.0,508.1333333333333,508.3777777777778,525.2666666666667,507.0,507.0,502.0,502.0,502.0,502.0,512.0,512.0,512.0,512.0,507.0,507.0,507.0,507.0,505.0,505.0,505.0,505.0,503.0,503.0,500.0,500.0,516.0,516.0,516.0,516.0,504.0,504.0,504.0,504.0,517.0,517.0,517.0,517.0,507.0,507.0,507.0,507.0,509.0,509.0,537.0,537.0,519.0,519.0,519.0,519.0,505.0,505.0,505.0,505.0,504.0,504.0,504.0,504.0,503.0,503.0,503.0,503.0,498.0,498.0,502.0,500.0,498.0,18.0,17.0,47.0
0,512.0,517.0,519.0,509.0,502.0,495.0,507.8666666666667,507.64444444444445,522.4888888888889,502.0,502.0,502.0,512.0,512.0,512.0,512.0,507.0,507.0,507.0,507.0,505.0,505.0,505.0,505.0,503.0,503.0,503.0,509.0,509.0,516.0,516.0,516.0,504.0,504.0,504.0,504.0,517.0,517.0,517.0,517.0,507.0,507.0,507.0,507.0,509.0,509.0,509.0,502.0,502.0,519.0,519.0,519.0,505.0,505.0,505.0,505.0,504.0,504.0,504.0,504.0,503.0,503.0,503.0,503.0,498.0,498.0,498.0,495.0,495.0,502.0,502.0,495.0,18.0,17.0,50.0
0,512.0,517.0,505.0,509.0,496.0,489.0,508.1333333333333,506.26666666666665,517.9555555555555,512.0,512.0,512.0,507.0,507.0,507.0,507.0,505.0,505.0,505.0,505.0,503.0,503.0,503.0,509.0,509.0,509.0,509.0,509.0,509.0,504.0,504.0,504.0,517.0,517.0,517.0,517.0,507.0,507.0,507.0,507.0,509.0,509.0,509.0,502.0,502.0,502.0,502.0,496.0,496.0,505.0,505.0,505.0,504.0,504.0,504.0,504.0,503.0,503.0,503.0,503.0,498.0,498.0,498.0,495.0,495.0,495.0,495.0,489.0,489.0,503.0,496.0,489.0,18.0,21.0,56.0
0,513.0,517.0,504.0,513.0,502.0,492.0,508.44444444444446,505.77777777777777,514.6222222222223,507.0,507.0,507.0,507.0,505.0,505.0,505.0,505.0,503.0,503.0,503.0,509.0,509.0,509.0,509.0,509.0,509.0,509.0,513.0,513.0,517.0,517.0,517.0,517.0,507.0,507.0,507.0,507.0,509.0,509.0,509.0,502.0,502.0,502.0,502.0,496.0,496.0,496.0,502.0,502.0,504.0,504.0,504.0,504.0,503.0,503.0,503.0,503.0,498.0,498.0,498.0,495.0,495.0,495.0,495.0,489.0,489.0,489.0,492.0,492.0,503.0,496.0,489.0,18.0,21.0,50.0
0,513.0,517.0,504.0,507.0,496.0,485.0,508.55555555555554,505.31111111111113,511.22222222222223,507.0,505.0,505.0,505.0,505.0,503.0,503.0,503.0,509.0,509.0,509.0,509.0,509.0,509.0,509.0,513.0,513.0,513.0,507.0,507.0,517.0,507.0,507.0,507.0,507.0,509.0,509.0,509.0,502.0,502.0,502.0,502.0,496.0,496.0,496.0,502.0,502.0,502.0,496.0,496.0,504.0,503.0,503.0,503.0,503.0,498.0,498.0,498.0,495.0,495.0,495.0,495.0,489.0,489.0,489.0,492.0,492.0,492.0,485.0,485.0,503.0,496.0,485.0,18.0,21.0,52.0
0,513.0,509.0,503.0,510.0,498.0,484.0,508.64444444444445,504.46666666666664,506.77777777777777,505.0,503.0,503.0,503.0,509.0,509.0,509.0,509.0,509.0,509.0,509.0,513.0,513.0,513.0,507.0,507.0,507.0,507.0,510.0,510.0,507.0,509.0,509.0,509.0,502.0,502.0,502.0,502.0,496.0,496.0,496.0,502.0,502.0,502.0,496.0,496.0,496.0,496.0,498.0,498.0,503.0,498.0,498.0,498.0,495.0,495.0,495.0,495.0,489.0,489.0,489.0,492.0,492.0,492.0,485.0,485.0,485.0,485.0,484.0,484.0,503.0,496.0,484.0,18.0,21.0,53.0
0,513.0,502.0,495.0,510.0,497.0,488.0,508.24444444444447,503.8888888888889,502.5111111111111,509.0,509.0,509.0,509.0,509.0,509.0,509.0,513.0,513.0,513.0,507.0,507.0,507.0,507.0,510.0,510.0,510.0,510.0,510.0,510.0,502.0,502.0,502.0,502.0,496.0,496.0,496.0,502.0,502.0,502.0,496.0,496.0,496.0,496.0,498.0,498.0,498.0,498.0,497.0,497.0,495.0,495.0,495.0,495.0,489.0,489.0,489.0,492.0,492.0,492.0,485.0,485.0,485.0,485.0,484.0,484.0,484.0,484.0,488.0,488.0,507.0,496.0,484.0,18.0,21.0,53.0
0,516.0,502.0,507.0,516.0,501.0,507.0,507.93333333333334,503.84444444444443,500.8,509.0,509.0,509.0,509.0,509.0,513.0,513.0,513.0,507.0,507.0,507.0,507.0,510.0,510.0,510.0,510.0,510.0,510.0,516.0,516.0,502.0,502.0,496.0,496.0,496.0,502.0,502.0,502.0,496.0,496.0,496.0,496.0,498.0,498.0,498.0,498.0,497.0,497.0,501.0,501.0,495.0,495.0,489.0,489.0,489.0,492.0,492.0,492.0,485.0,485.0,485.0,485.0,484.0,484.0,484.0,484.0,488.0,488.0,507.0,507.0,507.0,496.0,484.0,14.0,21.0,53.0
0,516.0,510.0,519.0,514.0,510.0,519.0,509.0,503.8,498.1333333333333,513.0,513.0,513.0,507.0,507.0,507.0,507.0,510.0,510.0,510.0,510.0,510.0,510.0,510.0,516.0,516.0,516.0,516.0,516.0,514.0,502.0,502.0,502.0,496.0,496.0,496.0,496.0,498.0,498.0,498.0,498.0,497.0,497.0,497.0,501.0,501.0,501.0,501.0,501.0,510.0,492.0,492.0,492.0,485.0,485.0,485.0,485.0,484.0,484.0,484.0,484.0,488.0,488.0,488.0,507.0,507.0,507.0,507.0,507.0,519.0,507.0,496.0,484.0,14.0,21.0,35.0
0,516.0,510.0,522.0,510.0,509.0,522.0,509.7111111111111,503.6222222222222,498.8888888888889,507.0,507.0,510.0,510.0,510.0,510.0,510.0,510.0,510.0,516.0,516.0,516.0,516.0,516.0,514.0,514.0,514.0,514.0,510.0,510.0,496.0,496.0,498.0,498.0,498.0,498.0,497.0,497.0,497.0,501.0,501.0,501.0,501.0,501.0,510.0,510.0,510.0,510.0,509.0,509.0,485.0,485.0,484.0,484.0,484.0,484.0,488.0,488.0,488.0,507.0,507.0,507.0,507.0,507.0,519.0,519.0,519.0,519.0,522.0,522.0,507.0,496.0,484.0,13.0,21.0,38.0
0,516.0,510.0,531.0,512.0,509.0,531.0,509.77777777777777,503.6666666666667,500.44444444444446,510.0,510.0,510.0,510.0,510.0,510.0,516.0,516.0,516.0,516.0,516.0,514.0,514.0,514.0,514.0,510.0,510.0,510.0,512.0,512.0,498.0,498.0,498.0,497.0,497.0,497.0,501.0,501.0,501.0,501.0,501.0,510.0,510.0,510.0,510.0,509.0,509.0,509.0,509.0,509.0,484.0,484.0,484.0,488.0,488.0,488.0,507.0,507.0,507.0,507.0,507.0,519.0,519.0,519.0,519.0,522.0,522.0,522.0,531.0,531.0,510.0,497.0,484.0,13.0,21.0,47.0
0,516.0,518.0,536.0,511.0,518.0,536.0,510.06666666666666,503.53333333333336,502.46666666666664,510.0,510.0,510.0,516.0,516.0,516.0,516.0,516.0,514.0,514.0,514.0,514.0,510.0,510.0,510.0,512.0,512.0,512.0,511.0,511.0,497.0,497.0,497.0,501.0,501.0,501.0,501.0,501.0,510.0,510.0,510.0,510.0,509.0,509.0,509.0,509.0,509.0,509.0,518.0,518.0,488.0,488.0,488.0,507.0,507.0,507.0,507.0,507.0,519.0,519.0,519.0,519.0,522.0,522.0,522.0,531.0,531.0,531.0,536.0,536.0,510.0,497.0,488.0,13.0,22.0,52.0
0,516.0,518.0,536.0,509.0,518.0,531.0,510.4222222222222,504.26666666666665,504.55555555555554,516.0,516.0,516.0,516.0,516.0,514.0,514.0,514.0,514.0,510.0,510.0,510.0,512.0,512.0,512.0,511.0,511.0,511.0,511.0,509.0,501.0,501.0,501.0,501.0,501.0,510.0,510.0,510.0,510.0,509.0,509.0,509.0,509.0,509.0,509.0,518.0,518.0,518.0,518.0,518.0,507.0,507.0,507.0,507.0,507.0,519.0,519.0,519.0,519.0,522.0,522.0,522.0,531.0,531.0,531.0,536.0,536.0,536.0,536.0,531.0,509.0,501.0,507.0,13.0,22.0,52.0
0,516.0,518.0,539.0,512.0,506.0,539.0,511.0444444444444,504.5777777777778,507.73333333333335,516.0,514.0,514.0,514.0,514.0,510.0,510.0,510.0,512.0,512.0,512.0,511.0,511.0,511.0,511.0,509.0,509.0,509.0,512.0,512.0,501.0,510.0,510.0,510.0,510.0,509.0,509.0,509.0,509.0,509.0,509.0,518.0,518.0,518.0,518.0,518.0,518.0,518.0,506.0,506.0,507.0,519.0,519.0,519.0,519.0,522.0,522.0,522.0,531.0,531.0,531.0,536.0,536.0,536.0,536.0,531.0,531.0,531.0,539.0,539.0,509.0,501.0,507.0,9.0,22.0,55.0
0,512.0,518.0,550.0,497.0,499.0,550.0,510.7111111111111,504.84444444444443,513.2444444444444,510.0,510.0,510.0,512.0,512.0,512.0,511.0,511.0,511.0,511.0,509.0,509.0,509.0,512.0,512.0,512.0,512.0,512.0,497.0,497.0,509.0,509.0,509.0,509.0,509.0,509.0,518.0,518.0,518.0,518.0,518.0,518.0,518.0,506.0,506.0,506.0,506.0,506.0,499.0,499.0,522.0,522.0,522.0,531.0,531.0,531.0,536.0,536.0,536.0,536.0,531.0,531.0,531.0,539.0,539.0,539.0,539.0,539.0,550.0,550.0,497.0,499.0,522.0,19.0,22.0,66.0
0,512.0,518.0,550.0,510.0,501.0,544.0,510.0444444444444,504.93333333333334,518.2666666666667,512.0,512.0,511.0,511.0,511.0,511.0,509.0,509.0,509.0,512.0,512.0,512.0,512.0,512.0,497.0,497.0,497.0,497.0,510.0,510.0,509.0,509.0,518.0,518.0,518.0,518.0,518.0,518.0,518.0,506.0,506.0,506.0,506.0,506.0,499.0,499.0,499.0,499.0,501.0,501.0,531.0,531.0,536.0,536.0,536.0,536.0,531.0,531.0,531.0,539.0,539.0,539.0,539.0,539.0,550.0,550.0,550.0,550.0,544.0,544.0,497.0,499.0,531.0,19.0,22.0,66.0
0,512.0,518.0,550.0,506.0,499.0,530.0,510.0,505.15555555555557,522.7333333333333,511.0,511.0,509.0,509.0,509.0,512.0,512.0,512.0,512.0,512.0,497.0,497.0,497.0,497.0,510.0,510.0,510.0,510.0,506.0,506.0,518.0,518.0,518.0,518.0,518.0,506.0,506.0,506.0,506.0,506.0,499.0,499.0,499.0,499.0,501.0,501.0,501.0,501.0,499.0,499.0,536.0,536.0,531.0,531.0,531.0,539.0,539.0,539.0,539.0,539.0,550.0,550.0,550.0,550.0,544.0,544.0,544.0,544.0,530.0,530.0,497.0,499.0,530.0,19.0,22.0,66.0
0,512.0,518.0,550.0,509.0,507.0,518.0,509.84444444444443,505.64444444444445,526.2666666666667,509.0,512.0,512.0,512.0,512.0,512.0,497.0,497.0,497.0,497.0,510.0,510.0,510.0,510.0,506.0,506.0,506.0,506.0,509.0,509.0,518.0,506.0,506.0,506.0,506.0,506.0,499.0,499.0,499.0,499.0,501.0,501.0,501.0,501.0,499.0,499.0,499.0,499.0,507.0,507.0,531.0,539.0,539.0,539.0,539.0,539.0,550.0,550.0,550.0,550.0,544.0,544.0,544.0,544.0,530.0,530.0,530.0,530.0,518.0,518.0,497.0,499.0,518.0,19.0,21.0,66.0
0,512.0,511.0,550.0,508.0,511.0,511.0,509.7111111111111,506.68888888888887,528.7111111111111,512.0,512.0,497.0,497.0,497.0,497.0,510.0,510.0,510.0,510.0,506.0,506.0,506.0,506.0,509.0,509.0,509.0,509.0,508.0,508.0,506.0,506.0,499.0,499.0,499.0,499.0,501.0,501.0,501.0,501.0,499.0,499.0,499.0,499.0,507.0,507.0,507.0,507.0,511.0,511.0,539.0,539.0,550.0,550.0,550.0,550.0,544.0,544.0,544.0,544.0,530.0,530.0,530.0,530.0,518.0,518.0,518.0,518.0,511.0,511.0,497.0,499.0,511.0,19.0,19.0,43.0
0,521.0,511.0,550.0,521.0,500.0,499.0,509.5777777777778,507.0888888888889,528.5333333333333,497.0,497.0,510.0,510.0,510.0,510.0,506.0,506.0,506.0,506.0,509.0,509.0,509.0,509.0,508.0,508.0,508.0,508.0,521.0,521.0,499.0,499.0,501.0,501.0,501.0,501.0,499.0,499.0,499.0,499.0,507.0,507.0,507.0,507.0,511.0,511.0,511.0,511.0,500.0,500.0,550.0,550.0,544.0,544.0,544.0,544.0,530.0,530.0,530.0,530.0,518.0,518.0,518.0,518.0,511.0,511.0,511.0,511.0,499.0,499.0,497.0,499.0,499.0,24.0,19.0,51.0
0,521.0,511.0,544.0,507.0,506.0,486.0,509.3777777777778,506.8888888888889,526.8888888888889,510.0,510.0,510.0,506.0,506.0,506.0,506.0,509.0,509.0,509.0,509.0,508.0,508.0,508.0,508.0,521.0,521.0,521.0,507.0,507.0,501.0,501.0,501.0,499.0,499.0,499.0,499.0,507.0,507.0,507.0,507.0,511.0,511.0,511.0,511.0,500.0,500.0,500.0,506.0,506.0,544.0,544.0,544.0,530.0,530.0,530.0,530.0,518.0,518.0,518.0,518.0,511.0,511.0,511.0,511.0,499.0,499.0,499.0,486.0,486.0,506.0,499.0,486.0,24.0,19.0,64.0
0,521.0,511.0,530.0,506.0,506.0,488.0,508.8888888888889,506.5777777777778,523.9111111111112,506.0,506.0,506.0,509.0,509.0,509.0,509.0,508.0,508.0,508.0,508.0,521.0,521.0,521.0,507.0,507.0,507.0,507.0,506.0,506.0,499.0,499.0,499.0,507.0,507.0,507.0,507.0,511.0,511.0,511.0,511.0,500.0,500.0,500.0,506.0,506.0,506.0,506.0,506.0,506.0,530.0,530.0,530.0,518.0,518.0,518.0,518.0,511.0,511.0,511.0,511.0,499.0,499.0,499.0,486.0,486.0,486.0,486.0,488.0,488.0,506.0,499.0,486.0,24.0,19.0,64.0
0,521.0,511.0,518.0,510.0,504.0,501.0,508.5777777777778,506.22222222222223,520.8666666666667,509.0,509.0,509.0,508.0,508.0,508.0,508.0,521.0,521.0,521.0,507.0,507.0,507.0,507.0,506.0,506.0,506.0,506.0,510.0,510.0,507.0,507.0,507.0,511.0,511.0,511.0,511.0,500.0,500.0,500.0,506.0,506.0,506.0,506.0,506.0,506.0,506.0,506.0,504.0,504.0,518.0,518.0,518.0,511.0,511.0,511.0,511.0,499.0,499.0,499.0,486.0,486.0,486.0,486.0,488.0,488.0,488.0,488.0,501.0,501.0,506.0,500.0,486.0,24.0,19.0,64.0
0,521.0,511.0,511.0,508.0,509.0,498.0,508.4,505.2,517.6222222222223,508.0,508.0,508.0,521.0,521.0,521.0,507.0,507.0,507.0,507.0,506.0,506.0,506.0,506.0,510.0,510.0,510.0,510.0,508.0,508.0,511.0,511.0,511.0,500.0,500.0,500.0,506.0,506.0,506.0,506.0,506.0,506.0,506.0,506.0,504.0,504.0,504.0,504.0,509.0,509.0,511.0,511.0,511.0,499.0,499.0,499.0,486.0,486.0,486.0,486.0,488.0,488.0,488.0,488.0,501.0,501.0,501.0,501.0,498.0,498.0,506.0,500.0,486.0,24.0,19.0,64.0
0,521.0,509.0,501.0,505.0,502.0,486.0,508.02222222222224,504.4222222222222,513.0666666666667,521.0,507.0,507.0,507.0,507.0,506.0,506.0,506.0,506.0,510.0,510.0,510.0,510.0,508.0,508.0,508.0,508.0,508.0,505.0,505.0,500.0,506.0,506.0,506.0,506.0,506.0,506.0,506.0,506.0,504.0,504.0,504.0,504.0,509.0,509.0,509.0,509.0,509.0,502.0,502.0,499.0,486.0,486.0,486.0,486.0,488.0,488.0,488.0,488.0,501.0,501.0,501.0,501.0,498.0,498.0,498.0,498.0,498.0,486.0,486.0,505.0,500.0,486.0,24.0,12.0,64.0
0,510.0,509.0,501.0,509.0,501.0,485.0,507.64444444444445,504.1333333333333,509.5111111111111,507.0,507.0,506.0,506.0,506.0,506.0,510.0,510.0,510.0,510.0,508.0,508.0,508.0,508.0,508.0,505.0,505.0,505.0,505.0,509.0,506.0,506.0,506.0,506.0,506.0,506.0,504.0,504.0,504.0,504.0,509.0,509.0,509.0,509.0,509.0,502.0,502.0,502.0,502.0,501.0,486.0,486.0,488.0,488.0,488.0,488.0,501.0,501.0,501.0,501.0,498.0,498.0,498.0,498.0,498.0,486.0,486.0,486.0,486.0,485.0,505.0,501.0,485.0,24.0,12.0,65.0
0,511.0,509.0,501.0,511.0,490.0,478.0,508.77777777777777,503.8222222222222,502.1111111111111,506.0,510.0,510.0,510.0,510.0,508.0,508.0,508.0,508.0,508.0,505.0,505.0,505.0,505.0,509.0,509.0,509.0,509.0,511.0,511.0,506.0,504.0,504.0,504.0,504.0,509.0,509.0,509.0,509.0,509.0,502.0,502.0,502.0,502.0,501.0,501.0,501.0,501.0,490.0,490.0,488.0,501.0,501.0,501.0,501.0,498.0,498.0,498.0,498.0,498.0,486.0,486.0,486.0,486.0,485.0,485.0,485.0,485.0,478.0,478.0,505.0,490.0,478.0,16.0,21.0,66.0
0,514.0,509.0,501.0,514.0,495.0,473.0,509.0888888888889,503.1111111111111,496.3333333333333,510.0,508.0,508.0,508.0,508.0,508.0,505.0,505.0,505.0,505.0,509.0,509.0,509.0,509.0,511.0,511.0,511.0,511.0,514.0,514.0,504.0,509.0,509.0,509.0,509.0,509.0,502.0,502.0,502.0,502.0,501.0,501.0,501.0,501.0,490.0,490.0,490.0,490.0,495.0,495.0,501.0,498.0,498.0,498.0,498.0,498.0,486.0,486.0,486.0,486.0,485.0,485.0,485.0,485.0,478.0,478.0,478.0,478.0,473.0,473.0,505.0,490.0,473.0,16.0,21.0,57.0
0,514.0,509.0,498.0,513.0,498.0,488.0,509.68888888888887,502.7111111111111,492.2,508.0,508.0,505.0,505.0,505.0,505.0,509.0,509.0,509.0,509.0,511.0,511.0,511.0,511.0,514.0,514.0,514.0,514.0,513.0,513.0,509.0,509.0,502.0,502.0,502.0,502.0,501.0,501.0,501.0,501.0,490.0,490.0,490.0,490.0,495.0,495.0,495.0,495.0,498.0,498.0,498.0,498.0,486.0,486.0,486.0,486.0,485.0,485.0,485.0,485.0,478.0,478.0,478.0,478.0,473.0,473.0,473.0,473.0,488.0,488.0,505.0,490.0,473.0,16.0,21.0,45.0
0,514.0,502.0,510.0,506.0,491.0,510.0,509.75555555555553,501.5111111111111,490.6666666666667,505.0,505.0,509.0,509.0,509.0,509.0,511.0,511.0,511.0,511.0,514.0,514.0,514.0,514.0,513.0,513.0,513.0,513.0,506.0,506.0,502.0,502.0,501.0,501.0,501.0,501.0,490.0,490.0,490.0,490.0,495.0,495.0,495.0,495.0,498.0,498.0,498.0,498.0,491.0,491.0,486.0,486.0,485.0,485.0,485.0,485.0,478.0,478.0,478.0,478.0,473.0,473.0,473.0,473.0,488.0,488.0,488.0,488.0,510.0,510.0,505.0,490.0,473.0,16.0,21.0,38.0
0,514.0,501.0,511.0,507.0,497.0,511.0,509.6666666666667,500.44444444444446,490.64444444444445,509.0,509.0,509.0,511.0,511.0,511.0,511.0,514.0,514.0,514.0,514.0,513.0,513.0,513.0,513.0,506.0,506.0,506.0,507.0,507.0,501.0,501.0,501.0,490.0,490.0,490.0,490.0,495.0,495.0,495.0,495.0,498.0,498.0,498.0,498.0,491.0,491.0,491.0,497.0,497.0,485.0,485.0,485.0,478.0,478.0,478.0,478.0,473.0,473.0,473.0,473.0,488.0,488.0,488.0,488.0,510.0,510.0,510.0,511.0,511.0,506.0,490.0,473.0,16.0,19.0,38.0
0,514.0,505.0,511.0,511.0,505.0,509.0,508.9111111111111,500.4,491.9111111111111,511.0,511.0,511.0,514.0,514.0,514.0,514.0,513.0,513.0,513.0,513.0,506.0,506.0,506.0,507.0,507.0,507.0,507.0,511.0,511.0,490.0,490.0,490.0,495.0,495.0,495.0,495.0,498.0,498.0,498.0,498.0,491.0,491.0,491.0,497.0,497.0,497.0,497.0,505.0,505.0,478.0,478.0,478.0,473.0,473.0,473.0,473.0,488.0,488.0,488.0,488.0,510.0,510.0,510.0,511.0,511.0,511.0,511.0,509.0,509.0,506.0,490.0,473.0,9.0,19.0,38.0
0,514.0,509.0,516.0,512.0,509.0,516.0,509.3333333333333,500.4888888888889,494.22222222222223,514.0,514.0,514.0,513.0,513.0,513.0,513.0,506.0,506.0,506.0,507.0,507.0,507.0,507.0,511.0,511.0,511.0,511.0,512.0,512.0,495.0,495.0,495.0,498.0,498.0,498.0,498.0,491.0,491.0,491.0,497.0,497.0,497.0,497.0,505.0,505.0,505.0,505.0,509.0,509.0,473.0,473.0,473.0,488.0,488.0,488.0,488.0,510.0,510.0,510.0,511.0,511.0,511.0,511.0,509.0,509.0,509.0,509.0,516.0,516.0,506.0,491.0,473.0,9.0,19.0,43.0
0,515.0,516.0,521.0,515.0,516.0,521.0,509.9111111111111,501.1111111111111,496.64444444444445,513.0,513.0,513.0,506.0,506.0,506.0,507.0,507.0,507.0,507.0,511.0,511.0,511.0,511.0,512.0,512.0,512.0,512.0,515.0,515.0,498.0,498.0,498.0,491.0,491.0,491.0,497.0,497.0,497.0,497.0,505.0,505.0,505.0,505.0,509.0,509.0,509.0,509.0,516.0,516.0,488.0,488.0,488.0,510.0,510.0,510.0,511.0,511.0,511.0,511.0,509.0,509.0,509.0,509.0,516.0,516.0,516.0,516.0,521.0,521.0,506.0,491.0,488.0,10.0,26.0,48.0
0,515.0,521.0,533.0,511.0,521.0,533.0,510.22222222222223,502.2888888888889,499.02222222222224,506.0,506.0,507.0,507.0,507.0,507.0,511.0,511.0,511.0,511.0,512.0,512.0,512.0,512.0,515.0,515.0,515.0,515.0,511.0,511.0,491.0,491.0,497.0,497.0,497.0,497.0,505.0,505.0,505.0,505.0,509.0,509.0,509.0,509.0,516.0,516.0,516.0,516.0,521.0,521.0,510.0,510.0,511.0,511.0,511.0,511.0,509.0,509.0,509.0,509.0,516.0,516.0,516.0,516.0,521.0,521.0,521.0,521.0,533.0,533.0,506.0,491.0,509.0,10.0,31.0,60.0
0,515.0,521.0,543.0,503.0,514.0,543.0,510.1333333333333,503.0444444444444,502.5777777777778,507.0,507.0,511.0,511.0,511.0,511.0,512.0,512.0,512.0,512.0,515.0,515.0,515.0,515.0,511.0,511.0,511.0,511.0,503.0,503.0,497.0,497.0,505.0,505.0,505.0,505.0,509.0,509.0,509.0,509.0,516.0,516.0,516.0,516.0,521.0,521.0,521.0,521.0,514.0,514.0,511.0,511.0,509.0,509.0,509.0,509.0,516.0,516.0,516.0,516.0,521.0,521.0,521.0,521.0,533.0,533.0,533.0,533.0,543.0,543.0,503.0,497.0,509.0,12.0,31.0,70.0
0,515.0,521.0,548.0,508.0,507.0,548.0,510.1777777777778,503.8,507.8666666666667,511.0,511.0,512.0,512.0,512.0,512.0,515.0,515.0,515.0,515.0,511.0,511.0,511.0,511.0,503.0,503.0,503.0,503.0,508.0,508.0,505.0,505.0,509.0,509.0,509.0,509.0,516.0,516.0,516.0,516.0,521.0,521.0,521.0,521.0,514.0,514.0,514.0,514.0,507.0,507.0,509.0,509.0,516.0,516.0,516.0,516.0,521.0,521.0,521.0,521.0,533.0,533.0,533.0,533.0,543.0,543.0,543.0,543.0,548.0,548.0,503.0,505.0,509.0,12.0,31.0,75.0
